{
  "AcquisitionMatrixPE": 96,
  "AcquisitionNumber": 1,
  "AcquisitionTime": "11:57:17.042500",
  "BaseResolution": 96,
  "BodyPartExamined": "BRAIN",
  "ConsistencyInfo": "N4_VE11C_LATEST_20160120",
  "ConversionSoftware": "dcm2niix",
  "ConversionSoftwareVersion": "v1.0.20190902",
  "DeviceSerialNumber": "66112",
  "DwellTime": 8.8e-06,
  "EchoNumber": 2,
  "EchoTime": 0.00738,
  "EchoTime1": 0.00492,
  "EchoTime2": 0.00738,
  "FlipAngle": 60,
  "ImageOrientationPatientDICOM": [
    0.998774,
    -0.0273447,
    0.041256,
    0.0258049,
    0.998967,
    0.0374051
  ],
  "ImageType": [
    "ORIGINAL",
    "PRIMARY",
    "P",
    "ND"
  ],
  "ImagingFrequency": 123.252,
  "InPlanePhaseEncodingDirectionDICOM": "COL",
  "InstitutionAddress": "Maynard_3_Hanover_NH_US_03755",
  "InstitutionName": "Dartmouth_College_-_PBS",
  "InstitutionalDepartmentName": "Department",
  "IntendedFor": [
    "func/sub-sid000052_task-movie_run-01_bold.nii.gz",
    "func/sub-sid000052_task-movie_run-02_bold.nii.gz",
    "func/sub-sid000052_task-movie_run-03_bold.nii.gz",
    "func/sub-sid000052_task-movie_run-04_bold.nii.gz",
    "func/sub-sid000052_task-movie_run-05_bold.nii.gz"
  ],
  "MRAcquisitionType": "2D",
  "MagneticFieldStrength": 3,
  "Manufacturer": "Siemens",
  "ManufacturersModelName": "Prisma",
  "Modality": "MR",
  "PartialFourier": 1,
  "PatientPosition": "HFS",
  "PercentPhaseFOV": 100,
  "PhaseEncodingDirection": "j-",
  "PhaseEncodingSteps": 96,
  "PhaseResolution": 1,
  "PixelBandwidth": 590,
  "ProcedureStepDescription": "Gobbini_Matteo_1037_budapest",
  "ProtocolName": "fmap_acq-2.5mm",
  "PulseSequenceDetails": "%SiemensSeq%_gre_field_mapping",
  "ReceiveCoilActiveElements": "HEA;HEP",
  "ReceiveCoilName": "Head_32",
  "ReconMatrixPE": 96,
  "RepetitionTime": 0.675,
  "SAR": 0.0815183,
  "ScanningSequence": "GR",
  "SequenceName": "_fm2d2r",
  "SequenceVariant": "SP",
  "SeriesDescription": "fmap_acq-2.5mm",
  "SeriesNumber": 7,
  "ShimSetting": [
    4155,
    -7695,
    -7412,
    609,
    -63,
    -74,
    -47,
    103
  ],
  "SliceThickness": 2.5,
  "SliceTiming": [
    0.33594,
    0,
    0.35156,
    0.01562,
    0.36719,
    0.03125,
    0.38281,
    0.04688,
    0.39844,
    0.0625,
    0.40625,
    0.07812,
    0.42188,
    0.08594,
    0.4375,
    0.10156,
    0.45312,
    0.11719,
    0.46875,
    0.13281,
    0.48438,
    0.14062,
    0.49219,
    0.15625,
    0.50781,
    0.17188,
    0.52344,
    0.1875,
    0.53906,
    0.20312,
    0.55469,
    0.21094,
    0.5625,
    0.22656,
    0.57812,
    0.24219,
    0.59375,
    0.25781,
    0.60938,
    0.26562,
    0.625,
    0.28125,
    0.63281,
    0.29688,
    0.64844,
    0.3125,
    0.66406,
    0.32812
  ],
  "SoftwareVersions": "syngo_MR_E11",
  "SpacingBetweenSlices": 2.5,
  "StationName": "AWP66112",
  "TxRefAmp": 246.64,
  "dcmmeta_affine": [
    [
      -2.4969358444213867,
      0.06451231241226196,
      0.1055903434753418,
      116.5538330078125
    ],
    [
      0.06836183369159698,
      2.497417449951172,
      0.09073734283447266,
      -111.76789093017578
    ],
    [
      0.1031399667263031,
      -0.09351284801959991,
      2.4961204528808594,
      -87.36835479736328
    ],
    [
      0.0,
      0.0,
      0.0,
      1.0
    ]
  ],
  "dcmmeta_reorient_transform": [
    [
      0.0,
      -1.0,
      0.0,
      95.0
    ],
    [
      1.0,
      0.0,
      0.0,
      0.0
    ],
    [
      0.0,
      0.0,
      -1.0,
      47.0
    ],
    [
      0.0,
      0.0,
      0.0,
      1.0
    ]
  ],
  "dcmmeta_shape": [
    96,
    96,
    48
  ],
  "dcmmeta_slice_dim": 2,
  "dcmmeta_version": 0.6,
  "global": {
    "const": {
      "AccessionNumber": "A001440",
      "AcquisitionMatrix": [
        96,
        0,
        0,
        96
      ],
      "AcquisitionNumber": 1,
      "AngioFlag": "N",
      "BitsAllocated": 16,
      "BitsStored": 12,
      "BodyPartExamined": "BRAIN",
      "Columns": 96,
      "EchoNumbers": 2,
      "EchoTime": 7.38,
      "EchoTrainLength": 0,
      "FlipAngle": 60.0,
      "HighBit": 11,
      "ImageOrientationPatient": [
        0.99877435349699,
        -0.027344732193,
        0.04125598644999,
        0.02580492547413,
        0.99896694712368,
        0.03740513835929
      ],
      "ImageType": [
        "ORIGINAL",
        "PRIMARY",
        "P",
        "ND"
      ],
      "ImagedNucleus": "1H",
      "ImagingFrequency": 123.252319,
      "InPlanePhaseEncodingDirection": "COL",
      "MRAcquisitionType": "2D",
      "MagneticFieldStrength": 3.0,
      "Manufacturer": "SIEMENS",
      "ManufacturerModelName": "Prisma",
      "Modality": "MR",
      "NumberOfAverages": 1.0,
      "NumberOfPhaseEncodingSteps": 96,
      "PercentPhaseFieldOfView": 100.0,
      "PercentSampling": 100.0,
      "PerformedProcedureStepStartTime": "112900.041000",
      "PhotometricInterpretation": "MONOCHROME2",
      "PixelBandwidth": 590.0,
      "PixelRepresentation": 0,
      "PixelSpacing": [
        2.5,
        2.5
      ],
      "ProtocolName": "fmap_acq-2.5mm",
      "RepetitionTime": 675.0,
      "RescaleIntercept": -4096.0,
      "RescaleSlope": 2.0,
      "RescaleType": "US",
      "Rows": 96,
      "SAR": 0.08151828206599,
      "SamplesPerPixel": 1,
      "ScanningSequence": "GR",
      "SequenceName": "*fm2d2r",
      "SequenceVariant": "SP",
      "SeriesDescription": "fmap_acq-2.5mm",
      "SeriesNumber": 7,
      "SeriesTime": "115926.921000",
      "SliceThickness": 2.5,
      "SoftwareVersions": "syngo MR E11",
      "SpacingBetweenSlices": 2.5,
      "SpecificCharacterSet": "ISO_IR 100",
      "StudyID": "3",
      "StudyTime": "112859.927000",
      "TransmitCoilName": "Body",
      "VariableFlipAngleFlag": "N",
      "WindowCenterWidthExplanation": "Algo1",
      "dBdt": 0.0
    },
    "slices": {
      "AcquisitionTime": [
        "115717.042500",
        "115716.705000",
        "115717.057500",
        "115716.720000",
        "115717.072500",
        "115716.735000",
        "115717.085000",
        "115716.747500",
        "115717.100000",
        "115716.762500",
        "115717.112500",
        "115716.777500",
        "115717.127500",
        "115716.790000",
        "115717.142500",
        "115716.805000",
        "115717.155000",
        "115716.817500",
        "115717.170000",
        "115716.832500",
        "115717.185000",
        "115716.847500",
        "115717.197500",
        "115716.860000",
        "115717.212500",
        "115716.875000",
        "115717.225000",
        "115716.890000",
        "115717.240000",
        "115716.902500",
        "115717.255000",
        "115716.917500",
        "115717.267500",
        "115716.930000",
        "115717.282500",
        "115716.945000",
        "115717.297500",
        "115716.960000",
        "115717.310000",
        "115716.972500",
        "115717.325000",
        "115716.987500",
        "115717.337500",
        "115717.000000",
        "115717.352500",
        "115717.015000",
        "115717.367500",
        "115717.030000"
      ],
      "ContentTime": [
        "115926.976000",
        "115926.924000",
        "115926.978000",
        "115926.926000",
        "115926.980000",
        "115926.929000",
        "115926.982000",
        "115926.931000",
        "115926.984000",
        "115926.933000",
        "115926.986000",
        "115926.935000",
        "115926.988000",
        "115926.937000",
        "115926.991000",
        "115926.939000",
        "115926.997000",
        "115926.941000",
        "115927.000000",
        "115926.943000",
        "115927.002000",
        "115926.946000",
        "115927.004000",
        "115926.948000",
        "115927.007000",
        "115926.950000",
        "115927.009000",
        "115926.952000",
        "115927.011000",
        "115926.955000",
        "115927.013000",
        "115926.957000",
        "115927.015000",
        "115926.959000",
        "115927.017000",
        "115926.961000",
        "115927.019000",
        "115926.963000",
        "115927.021000",
        "115926.965000",
        "115927.023000",
        "115926.968000",
        "115927.025000",
        "115926.970000",
        "115927.028000",
        "115926.972000",
        "115927.030000",
        "115926.974000"
      ],
      "CsaImage.ICE_Dims": [
        "X_2_1_1_1_1_1_25_1_1_1_1_18",
        "X_2_1_1_1_1_1_1_1_1_2_1_18",
        "X_2_1_1_1_1_1_26_1_1_3_1_18",
        "X_2_1_1_1_1_1_2_1_1_4_1_18",
        "X_2_1_1_1_1_1_27_1_1_5_1_18",
        "X_2_1_1_1_1_1_3_1_1_6_1_18",
        "X_2_1_1_1_1_1_28_1_1_7_1_18",
        "X_2_1_1_1_1_1_4_1_1_8_1_18",
        "X_2_1_1_1_1_1_29_1_1_9_1_18",
        "X_2_1_1_1_1_1_5_1_1_10_1_18",
        "X_2_1_1_1_1_1_30_1_1_11_1_18",
        "X_2_1_1_1_1_1_6_1_1_12_1_18",
        "X_2_1_1_1_1_1_31_1_1_13_1_18",
        "X_2_1_1_1_1_1_7_1_1_14_1_18",
        "X_2_1_1_1_1_1_32_1_1_15_1_18",
        "X_2_1_1_1_1_1_8_1_1_16_1_18",
        "X_2_1_1_1_1_1_33_1_1_17_1_18",
        "X_2_1_1_1_1_1_9_1_1_18_1_18",
        "X_2_1_1_1_1_1_34_1_1_19_1_18",
        "X_2_1_1_1_1_1_10_1_1_20_1_18",
        "X_2_1_1_1_1_1_35_1_1_21_1_18",
        "X_2_1_1_1_1_1_11_1_1_22_1_18",
        "X_2_1_1_1_1_1_36_1_1_23_1_18",
        "X_2_1_1_1_1_1_12_1_1_24_1_18",
        "X_2_1_1_1_1_1_37_1_1_25_1_18",
        "X_2_1_1_1_1_1_13_1_1_26_1_18",
        "X_2_1_1_1_1_1_38_1_1_27_1_18",
        "X_2_1_1_1_1_1_14_1_1_28_1_18",
        "X_2_1_1_1_1_1_39_1_1_29_1_18",
        "X_2_1_1_1_1_1_15_1_1_30_1_18",
        "X_2_1_1_1_1_1_40_1_1_31_1_18",
        "X_2_1_1_1_1_1_16_1_1_32_1_18",
        "X_2_1_1_1_1_1_41_1_1_33_1_18",
        "X_2_1_1_1_1_1_17_1_1_34_1_18",
        "X_2_1_1_1_1_1_42_1_1_35_1_18",
        "X_2_1_1_1_1_1_18_1_1_36_1_18",
        "X_2_1_1_1_1_1_43_1_1_37_1_18",
        "X_2_1_1_1_1_1_19_1_1_38_1_18",
        "X_2_1_1_1_1_1_44_1_1_39_1_18",
        "X_2_1_1_1_1_1_20_1_1_40_1_18",
        "X_2_1_1_1_1_1_45_1_1_41_1_18",
        "X_2_1_1_1_1_1_21_1_1_42_1_18",
        "X_2_1_1_1_1_1_46_1_1_43_1_18",
        "X_2_1_1_1_1_1_22_1_1_44_1_18",
        "X_2_1_1_1_1_1_47_1_1_45_1_18",
        "X_2_1_1_1_1_1_23_1_1_46_1_18",
        "X_2_1_1_1_1_1_48_1_1_47_1_18",
        "X_2_1_1_1_1_1_24_1_1_48_1_18"
      ],
      "CsaImage.ProtocolSliceNumber": [
        0,
        1,
        2,
        3,
        4,
        5,
        6,
        7,
        8,
        9,
        10,
        11,
        12,
        13,
        14,
        15,
        16,
        17,
        18,
        19,
        20,
        21,
        22,
        23,
        24,
        25,
        26,
        27,
        28,
        29,
        30,
        31,
        32,
        33,
        34,
        35,
        36,
        37,
        38,
        39,
        40,
        41,
        42,
        43,
        44,
        45,
        46,
        47
      ],
      "CsaImage.SlicePosition_PCS": [
        [
          -122.68249191,
          -125.48678901,
          -96.25207912
        ],
        [
          -122.78808243,
          -125.5775254,
          -93.75596248
        ],
        [
          -122.89367294,
          -125.66826179,
          -91.25983821
        ],
        [
          -122.99926344,
          -125.75899914,
          -88.76372157
        ],
        [
          -123.10485395,
          -125.84973552,
          -86.26759731
        ],
        [
          -123.21044446,
          -125.94047191,
          -83.77148067
        ],
        [
          -123.31603495,
          -126.03120926,
          -81.2753564
        ],
        [
          -123.42162548,
          -126.12194565,
          -78.77923976
        ],
        [
          -123.527216,
          -126.21268203,
          -76.28311549
        ],
        [
          -123.63280646,
          -126.30341938,
          -73.78699886
        ],
        [
          -123.73839698,
          -126.39415577,
          -71.29087459
        ],
        [
          -123.84398751,
          -126.48489216,
          -68.79475414
        ],
        [
          -123.94957797,
          -126.5756295,
          -66.29863368
        ],
        [
          -124.05516855,
          -126.66636589,
          -63.80251323
        ],
        [
          -124.16075901,
          -126.75710228,
          -61.30639278
        ],
        [
          -124.26634948,
          -126.84783962,
          -58.81027232
        ],
        [
          -124.37194006,
          -126.93857601,
          -56.31415187
        ],
        [
          -124.47753052,
          -127.0293124,
          -53.81803142
        ],
        [
          -124.5831211,
          -127.12004974,
          -51.32191097
        ],
        [
          -124.68871157,
          -127.21078613,
          -48.82579051
        ],
        [
          -124.79430203,
          -127.30152252,
          -46.32967006
        ],
        [
          -124.89989261,
          -127.39225986,
          -43.83354961
        ],
        [
          -125.00548319,
          -127.48299625,
          -41.33742915
        ],
        [
          -125.11107354,
          -127.57373264,
          -38.8413087
        ],
        [
          -125.21666412,
          -127.66446998,
          -36.34518825
        ],
        [
          -125.3222547,
          -127.75520637,
          -33.8490678
        ],
        [
          -125.42784504,
          -127.84594372,
          -31.35294734
        ],
        [
          -125.53343562,
          -127.9366801,
          -28.85682689
        ],
        [
          -125.63902621,
          -128.02741649,
          -26.36070644
        ],
        [
          -125.74461655,
          -128.11815384,
          -23.86458598
        ],
        [
          -125.85020713,
          -128.20889023,
          -21.36846553
        ],
        [
          -125.95579771,
          -128.29962661,
          -18.87234508
        ],
        [
          -126.06138806,
          -128.39036396,
          -16.37622415
        ],
        [
          -126.16697864,
          -128.48110035,
          -13.8801037
        ],
        [
          -126.27256922,
          -128.57183674,
          -11.38398324
        ],
        [
          -126.37815956,
          -128.66257408,
          -8.88786267
        ],
        [
          -126.48375015,
          -128.75331047,
          -6.3917421
        ],
        [
          -126.58934073,
          -128.84404686,
          -3.89562188
        ],
        [
          -126.69493107,
          -128.9347842,
          -1.39950095
        ],
        [
          -126.80052165,
          -129.02552059,
          1.0966195
        ],
        [
          -126.90611224,
          -129.11625698,
          3.59273995
        ],
        [
          -127.01170258,
          -129.20699432,
          6.0888604
        ],
        [
          -127.1172934,
          -129.29773071,
          8.5849799
        ],
        [
          -127.22288374,
          -129.3884671,
          11.08110036
        ],
        [
          -127.32847409,
          -129.47920444,
          13.57722081
        ],
        [
          -127.43406491,
          -129.56994083,
          16.07334126
        ],
        [
          -127.53965525,
          -129.66067722,
          18.56946362
        ],
        [
          -127.64524559,
          -129.75141456,
          21.06558408
        ]
      ],
      "CsaImage.TimeAfterStart": [
        1.015,
        0.6775,
        1.03,
        0.6925,
        1.045,
        0.7075,
        1.0575,
        0.72,
        1.0725,
        0.735,
        1.085,
        0.75,
        1.1,
        0.7625,
        1.115,
        0.7775,
        1.1275,
        0.79,
        1.1425,
        0.805,
        1.1575,
        0.82,
        1.17,
        0.8325,
        1.185,
        0.8475,
        1.1975,
        0.8625,
        1.2125,
        0.875,
        1.2275,
        0.89,
        1.24,
        0.9025,
        1.255,
        0.9175,
        1.27,
        0.9325,
        1.2825,
        0.945,
        1.2975,
        0.96,
        1.31,
        0.9725,
        1.325,
        0.9875,
        1.34,
        1.0025
      ],
      "ImagePositionPatient": [
        [
          -122.6824919099,
          -125.48678901403,
          -96.252079117739
        ],
        [
          -122.78808243219,
          -125.57752540319,
          -93.755962479555
        ],
        [
          -122.89367293586,
          -125.66826179235,
          -91.259838211977
        ],
        [
          -122.99926344324,
          -125.75899913519,
          -88.763721573793
        ],
        [
          -123.10485395436,
          -125.84973552435,
          -86.267597306215
        ],
        [
          -123.21044446175,
          -125.94047191351,
          -83.771480668032
        ],
        [
          -123.31603495423,
          -126.03120925634,
          -81.275356400454
        ],
        [
          -123.42162547652,
          -126.1219456455,
          -78.77923976227
        ],
        [
          -123.52721599881,
          -126.21268203466,
          -76.283115494692
        ],
        [
          -123.6328064615,
          -126.3034193775,
          -73.786998856508
        ],
        [
          -123.73839698379,
          -126.39415576666,
          -71.29087458893
        ],
        [
          -123.84398750607,
          -126.48489215582,
          -68.794754136049
        ],
        [
          -123.94957796876,
          -126.57562949865,
          -66.298633683168
        ],
        [
          -124.05516855065,
          -126.66636588781,
          -63.802513230288
        ],
        [
          -124.16075901334,
          -126.75710227697,
          -61.306392777407
        ],
        [
          -124.26634947602,
          -126.84783961981,
          -58.810272324526
        ],
        [
          -124.37194005792,
          -126.93857600897,
          -56.314151871645
        ],
        [
          -124.4775305206,
          -127.02931239813,
          -53.818031418764
        ],
        [
          -124.5831211025,
          -127.12004974096,
          -51.321910965883
        ],
        [
          -124.68871156518,
          -127.21078613012,
          -48.825790513002
        ],
        [
          -124.79430202786,
          -127.30152251928,
          -46.329670060122
        ],
        [
          -124.89989260976,
          -127.39225986211,
          -43.833549607241
        ],
        [
          -125.00548319165,
          -127.48299625127,
          -41.33742915436
        ],
        [
          -125.11107353513,
          -127.57373264043,
          -38.841308701479
        ],
        [
          -125.21666411702,
          -127.66446998327,
          -36.345188248598
        ],
        [
          -125.32225469892,
          -127.75520637243,
          -33.849067795717
        ],
        [
          -125.42784504239,
          -127.84594371526,
          -31.352947342836
        ],
        [
          -125.53343562428,
          -127.93668010442,
          -28.856826889956
        ],
        [
          -125.63902620618,
          -128.02741649358,
          -26.360706437075
        ],
        [
          -125.74461654965,
          -128.11815383642,
          -23.864585984194
        ],
        [
          -125.85020713155,
          -128.20889022558,
          -21.368465531313
        ],
        [
          -125.95579771344,
          -128.29962661474,
          -18.872345078432
        ],
        [
          -126.06138805692,
          -128.39036395757,
          -16.376224148714
        ],
        [
          -126.16697863881,
          -128.48110034673,
          -13.880103695833
        ],
        [
          -126.2725692207,
          -128.57183673589,
          -11.383983242952
        ],
        [
          -126.37815956418,
          -128.66257407873,
          -8.8878626708622
        ],
        [
          -126.48375014607,
          -128.75331046789,
          -6.391742098772
        ],
        [
          -126.58934072797,
          -128.84404685705,
          -3.8956218843098
        ],
        [
          -126.69493107144,
          -128.93478419988,
          -1.3995009545917
        ],
        [
          -126.80052165334,
          -129.02552058904,
          1.0966194982891
        ],
        [
          -126.90611223523,
          -129.1162569782,
          3.59273995117
        ],
        [
          -127.01170257871,
          -129.20699432104,
          6.0888604040508
        ],
        [
          -127.11729339902,
          -129.2977307102,
          8.5849799032574
        ],
        [
          -127.22288374249,
          -129.38846709936,
          11.081100356138
        ],
        [
          -127.32847408597,
          -129.47920444219,
          13.577220809019
        ],
        [
          -127.43406490628,
          -129.56994083135,
          16.0733412619
        ],
        [
          -127.53965524976,
          -129.66067722051,
          18.569463622129
        ],
        [
          -127.64524559323,
          -129.75141456335,
          21.06558407501
        ]
      ],
      "InstanceCreationTime": [
        "115926.976000",
        "115926.924000",
        "115926.978000",
        "115926.926000",
        "115926.980000",
        "115926.929000",
        "115926.982000",
        "115926.931000",
        "115926.984000",
        "115926.933000",
        "115926.986000",
        "115926.935000",
        "115926.988000",
        "115926.937000",
        "115926.991000",
        "115926.939000",
        "115926.997000",
        "115926.941000",
        "115927.000000",
        "115926.943000",
        "115927.002000",
        "115926.946000",
        "115927.004000",
        "115926.948000",
        "115927.007000",
        "115926.950000",
        "115927.009000",
        "115926.952000",
        "115927.011000",
        "115926.955000",
        "115927.013000",
        "115926.957000",
        "115927.015000",
        "115926.959000",
        "115927.017000",
        "115926.961000",
        "115927.019000",
        "115926.963000",
        "115927.021000",
        "115926.965000",
        "115927.023000",
        "115926.968000",
        "115927.025000",
        "115926.970000",
        "115927.028000",
        "115926.972000",
        "115927.030000",
        "115926.974000"
      ],
      "InstanceNumber": [
        1,
        2,
        3,
        4,
        5,
        6,
        7,
        8,
        9,
        10,
        11,
        12,
        13,
        14,
        15,
        16,
        17,
        18,
        19,
        20,
        21,
        22,
        23,
        24,
        25,
        26,
        27,
        28,
        29,
        30,
        31,
        32,
        33,
        34,
        35,
        36,
        37,
        38,
        39,
        40,
        41,
        42,
        43,
        44,
        45,
        46,
        47,
        48
      ],
      "LargestImagePixelValue": [
        4093,
        4094,
        4095,
        4095,
        4093,
        4095,
        4095,
        4094,
        4094,
        4095,
        4094,
        4094,
        4095,
        4095,
        4093,
        4093,
        4093,
        4094,
        4094,
        4091,
        4093,
        4095,
        4090,
        4094,
        4091,
        4089,
        4087,
        4092,
        4091,
        4085,
        4094,
        4095,
        4088,
        4095,
        4090,
        4091,
        4094,
        4090,
        4094,
        4094,
        4091,
        4092,
        4093,
        4095,
        4095,
        4095,
        4095,
        4091
      ],
      "SliceLocation": [
        -86.366568901384,
        -83.86657275696,
        -81.366568995769,
        -78.866572817361,
        -76.366569055855,
        -73.866572912061,
        -71.366569116727,
        -68.866572972304,
        -66.366569210325,
        -63.866573033806,
        -61.366569271827,
        -58.866569318626,
        -56.366569333329,
        -53.866569377611,
        -51.366569426927,
        -48.86656944163,
        -46.366569485912,
        -43.866569535228,
        -41.366569544897,
        -38.866569594213,
        -36.366569643529,
        -33.866569653198,
        -31.366569697479,
        -28.86656975183,
        -26.366569761499,
        -23.86656980578,
        -21.366569825518,
        -18.8665698698,
        -16.366569914081,
        -13.866569933819,
        -11.366569978101,
        -8.8665700223823,
        -6.3665695660231,
        -3.8665696103046,
        -1.3665696545861,
        1.1334304447001,
        3.6334305194429,
        6.1334302371128,
        8.6334306934719,
        11.13343064919,
        13.633430604909,
        16.133430585171,
        18.633429598765,
        21.133429544414,
        23.633429524675,
        26.133429490464,
        28.633431340501,
        31.133431320763
      ],
      "SmallestImagePixelValue": [
        0,
        0,
        0,
        1,
        2,
        0,
        0,
        0,
        0,
        0,
        0,
        1,
        1,
        1,
        0,
        0,
        0,
        0,
        0,
        1,
        0,
        2,
        2,
        0,
        1,
        4,
        4,
        2,
        4,
        13,
        1,
        0,
        6,
        2,
        0,
        1,
        0,
        3,
        0,
        1,
        3,
        0,
        0,
        0,
        0,
        0,
        0,
        0
      ],
      "WindowCenter": [
        -198.0,
        -236.0,
        -246.0,
        -344.0,
        -302.0,
        -302.0,
        -224.0,
        -178.0,
        -140.0,
        -162.0,
        -180.0,
        -234.0,
        -264.0,
        -170.0,
        -124.0,
        -90.0,
        -76.0,
        -50.0,
        -80.0,
        -90.0,
        -132.0,
        -116.0,
        -112.0,
        -66.0,
        -62.0,
        -208.0,
        -216.0,
        -208.0,
        -192.0,
        -198.0,
        -190.0,
        -180.0,
        -176.0,
        -158.0,
        -156.0,
        -180.0,
        -158.0,
        -196.0,
        -170.0,
        -206.0,
        -212.0,
        -180.0,
        -110.0,
        -170.0,
        -132.0,
        -138.0,
        -222.0,
        -248.0
      ],
      "WindowWidth": [
        6080.0,
        6026.0,
        6116.0,
        6158.0,
        6230.0,
        6276.0,
        6322.0,
        6292.0,
        6128.0,
        5998.0,
        5912.0,
        5864.0,
        5730.0,
        5726.0,
        5666.0,
        5648.0,
        5602.0,
        5520.0,
        5366.0,
        5410.0,
        5424.0,
        5358.0,
        5122.0,
        5312.0,
        5292.0,
        4558.0,
        4560.0,
        4560.0,
        4562.0,
        4566.0,
        4564.0,
        4554.0,
        4562.0,
        4548.0,
        4564.0,
        4574.0,
        4578.0,
        4622.0,
        4630.0,
        4662.0,
        4712.0,
        5126.0,
        5576.0,
        5548.0,
        5858.0,
        5966.0,
        6160.0,
        6194.0
      ]
    }
  }
}