{
  "AcquisitionMatrixPE": 96,
  "AcquisitionNumber": 1,
  "AcquisitionTime": "19:44:53.262500",
  "BaseResolution": 96,
  "BodyPartExamined": "BRAIN",
  "ConsistencyInfo": "N4_VE11C_LATEST_20160120",
  "ConversionSoftware": "dcm2niix",
  "ConversionSoftwareVersion": "v1.0.20190902",
  "DeviceSerialNumber": "66112",
  "DwellTime": 8.8e-06,
  "EchoNumber": 2,
  "EchoTime": 0.00738,
  "EchoTime1": 0.00492,
  "EchoTime2": 0.00738,
  "FlipAngle": 60,
  "ImageOrientationPatientDICOM": [
    0.996976,
    0.0527895,
    0.0570293,
    -0.0557396,
    0.997119,
    0.0514398
  ],
  "ImageType": [
    "ORIGINAL",
    "PRIMARY",
    "P",
    "ND"
  ],
  "ImagingFrequency": 123.252,
  "InPlanePhaseEncodingDirectionDICOM": "COL",
  "InstitutionAddress": "Maynard_3_Hanover_NH_US_03755",
  "InstitutionName": "Dartmouth_College_-_PBS",
  "InstitutionalDepartmentName": "Department",
  "IntendedFor": [
    "func/sub-sid000007_task-movie_run-01_bold.nii.gz",
    "func/sub-sid000007_task-movie_run-02_bold.nii.gz",
    "func/sub-sid000007_task-movie_run-03_bold.nii.gz",
    "func/sub-sid000007_task-movie_run-04_bold.nii.gz",
    "func/sub-sid000007_task-movie_run-05_bold.nii.gz"
  ],
  "MRAcquisitionType": "2D",
  "MagneticFieldStrength": 3,
  "Manufacturer": "Siemens",
  "ManufacturersModelName": "Prisma",
  "Modality": "MR",
  "PartialFourier": 1,
  "PatientPosition": "HFS",
  "PercentPhaseFOV": 100,
  "PhaseEncodingDirection": "j-",
  "PhaseEncodingSteps": 96,
  "PhaseResolution": 1,
  "PixelBandwidth": 590,
  "ProcedureStepDescription": "Gobbini_Matteo_1037_budapest",
  "ProtocolName": "fmap_acq-2.5mm",
  "PulseSequenceDetails": "%SiemensSeq%_gre_field_mapping",
  "ReceiveCoilActiveElements": "HEA;HEP",
  "ReceiveCoilName": "Head_32",
  "ReconMatrixPE": 96,
  "RepetitionTime": 0.675,
  "SAR": 0.117857,
  "ScanningSequence": "GR",
  "SequenceName": "_fm2d2r",
  "SequenceVariant": "SP",
  "SeriesDescription": "fmap_acq-2.5mm",
  "SeriesNumber": 7,
  "ShimSetting": [
    4169,
    -7725,
    -7269,
    652,
    -17,
    -224,
    121,
    132
  ],
  "SliceThickness": 2.5,
  "SliceTiming": [
    0.34375,
    0,
    0.35938,
    0.01562,
    0.375,
    0.03125,
    0.39062,
    0.04688,
    0.39062,
    0.0625,
    0.40625,
    0.07812,
    0.42188,
    0.09375,
    0.4375,
    0.10938,
    0.45312,
    0.10938,
    0.46875,
    0.125,
    0.48438,
    0.14062,
    0.5,
    0.15625,
    0.51562,
    0.17188,
    0.51562,
    0.1875,
    0.53125,
    0.20312,
    0.54688,
    0.21875,
    0.5625,
    0.23438,
    0.57812,
    0.25,
    0.59375,
    0.25,
    0.60938,
    0.26562,
    0.625,
    0.28125,
    0.64062,
    0.29688,
    0.65625,
    0.3125,
    0.67188,
    0.32812
  ],
  "SoftwareVersions": "syngo_MR_E11",
  "SpacingBetweenSlices": 2.5,
  "StationName": "AWP66112",
  "TxRefAmp": 271.448,
  "dcmmeta_affine": [
    [
      -2.4924397468566895,
      -0.13934902846813202,
      0.1353740692138672,
      130.63320922851562
    ],
    [
      -0.13197383284568787,
      2.492798328399658,
      0.13615798950195312,
      -104.76753234863281
    ],
    [
      0.142573282122612,
      -0.12859958410263062,
      2.49261474609375,
      -65.32905578613281
    ],
    [
      0.0,
      0.0,
      0.0,
      1.0
    ]
  ],
  "dcmmeta_reorient_transform": [
    [
      0.0,
      -1.0,
      0.0,
      95.0
    ],
    [
      1.0,
      0.0,
      0.0,
      0.0
    ],
    [
      0.0,
      0.0,
      -1.0,
      47.0
    ],
    [
      0.0,
      0.0,
      0.0,
      1.0
    ]
  ],
  "dcmmeta_shape": [
    96,
    96,
    48
  ],
  "dcmmeta_slice_dim": 2,
  "dcmmeta_version": 0.6,
  "global": {
    "const": {
      "AccessionNumber": "A001147",
      "AcquisitionMatrix": [
        96,
        0,
        0,
        96
      ],
      "AcquisitionNumber": 1,
      "AngioFlag": "N",
      "BitsAllocated": 16,
      "BitsStored": 12,
      "BodyPartExamined": "BRAIN",
      "Columns": 96,
      "EchoNumbers": 2,
      "EchoTime": 7.38,
      "EchoTrainLength": 0,
      "FlipAngle": 60.0,
      "HighBit": 11,
      "ImageOrientationPatient": [
        0.99697588877746,
        0.05278953475706,
        0.05702931015301,
        -0.0557396087908,
        0.99711937064817,
        0.05143983563393
      ],
      "ImageType": [
        "ORIGINAL",
        "PRIMARY",
        "P",
        "ND"
      ],
      "ImagedNucleus": "1H",
      "ImagingFrequency": 123.252303,
      "InPlanePhaseEncodingDirection": "COL",
      "MRAcquisitionType": "2D",
      "MagneticFieldStrength": 3.0,
      "Manufacturer": "SIEMENS",
      "ManufacturerModelName": "Prisma",
      "Modality": "MR",
      "NumberOfAverages": 1.0,
      "NumberOfPhaseEncodingSteps": 96,
      "PercentPhaseFieldOfView": 100.0,
      "PercentSampling": 100.0,
      "PerformedProcedureStepStartTime": "193049.501000",
      "PhotometricInterpretation": "MONOCHROME2",
      "PixelBandwidth": 590.0,
      "PixelRepresentation": 0,
      "PixelSpacing": [
        2.5,
        2.5
      ],
      "ProtocolName": "fmap_acq-2.5mm",
      "RepetitionTime": 675.0,
      "RescaleIntercept": -4096.0,
      "RescaleSlope": 2.0,
      "RescaleType": "US",
      "Rows": 96,
      "SAR": 0.11785658814752,
      "SamplesPerPixel": 1,
      "ScanningSequence": "GR",
      "SequenceName": "*fm2d2r",
      "SequenceVariant": "SP",
      "SeriesDescription": "fmap_acq-2.5mm",
      "SeriesNumber": 7,
      "SeriesTime": "194702.957000",
      "SliceThickness": 2.5,
      "SoftwareVersions": "syngo MR E11",
      "SpacingBetweenSlices": 2.5,
      "SpecificCharacterSet": "ISO_IR 100",
      "StudyID": "1",
      "StudyTime": "193049.446000",
      "TransmitCoilName": "Body",
      "VariableFlipAngleFlag": "N",
      "WindowCenterWidthExplanation": "Algo1",
      "dBdt": 0.0
    },
    "slices": {
      "AcquisitionTime": [
        "194453.262500",
        "194452.925000",
        "194453.277500",
        "194452.940000",
        "194453.290000",
        "194452.952500",
        "194453.305000",
        "194452.967500",
        "194453.320000",
        "194452.982500",
        "194453.332500",
        "194452.995000",
        "194453.347500",
        "194453.010000",
        "194453.362500",
        "194453.025000",
        "194453.375000",
        "194453.037500",
        "194453.390000",
        "194453.052500",
        "194453.402500",
        "194453.065000",
        "194453.417500",
        "194453.080000",
        "194453.432500",
        "194453.095000",
        "194453.445000",
        "194453.107500",
        "194453.460000",
        "194453.122500",
        "194453.475000",
        "194453.137500",
        "194453.487500",
        "194453.150000",
        "194453.502500",
        "194453.165000",
        "194453.515000",
        "194453.177500",
        "194453.530000",
        "194453.192500",
        "194453.545000",
        "194453.207500",
        "194453.557500",
        "194453.220000",
        "194453.572500",
        "194453.235000",
        "194453.587500",
        "194453.250000"
      ],
      "ContentTime": [
        "194703.010000",
        "194702.960000",
        "194703.012000",
        "194702.962000",
        "194703.014000",
        "194702.964000",
        "194703.016000",
        "194702.967000",
        "194703.018000",
        "194702.969000",
        "194703.020000",
        "194702.971000",
        "194703.022000",
        "194702.973000",
        "194703.024000",
        "194702.975000",
        "194703.026000",
        "194702.977000",
        "194703.028000",
        "194702.979000",
        "194703.030000",
        "194702.981000",
        "194703.032000",
        "194702.983000",
        "194703.034000",
        "194702.985000",
        "194703.036000",
        "194702.987000",
        "194703.038000",
        "194702.989000",
        "194703.040000",
        "194702.991000",
        "194703.042000",
        "194702.993000",
        "194703.045000",
        "194702.995000",
        "194703.047000",
        "194702.998000",
        "194703.049000",
        "194703.000000",
        "194703.051000",
        "194703.002000",
        "194703.053000",
        "194703.004000",
        "194703.055000",
        "194703.006000",
        "194703.057000",
        "194703.008000"
      ],
      "CsaImage.ICE_Dims": [
        "X_2_1_1_1_1_1_25_1_1_1_1_152",
        "X_2_1_1_1_1_1_1_1_1_2_1_152",
        "X_2_1_1_1_1_1_26_1_1_3_1_152",
        "X_2_1_1_1_1_1_2_1_1_4_1_152",
        "X_2_1_1_1_1_1_27_1_1_5_1_152",
        "X_2_1_1_1_1_1_3_1_1_6_1_152",
        "X_2_1_1_1_1_1_28_1_1_7_1_152",
        "X_2_1_1_1_1_1_4_1_1_8_1_152",
        "X_2_1_1_1_1_1_29_1_1_9_1_152",
        "X_2_1_1_1_1_1_5_1_1_10_1_152",
        "X_2_1_1_1_1_1_30_1_1_11_1_152",
        "X_2_1_1_1_1_1_6_1_1_12_1_152",
        "X_2_1_1_1_1_1_31_1_1_13_1_152",
        "X_2_1_1_1_1_1_7_1_1_14_1_152",
        "X_2_1_1_1_1_1_32_1_1_15_1_152",
        "X_2_1_1_1_1_1_8_1_1_16_1_152",
        "X_2_1_1_1_1_1_33_1_1_17_1_152",
        "X_2_1_1_1_1_1_9_1_1_18_1_152",
        "X_2_1_1_1_1_1_34_1_1_19_1_152",
        "X_2_1_1_1_1_1_10_1_1_20_1_152",
        "X_2_1_1_1_1_1_35_1_1_21_1_152",
        "X_2_1_1_1_1_1_11_1_1_22_1_152",
        "X_2_1_1_1_1_1_36_1_1_23_1_152",
        "X_2_1_1_1_1_1_12_1_1_24_1_152",
        "X_2_1_1_1_1_1_37_1_1_25_1_152",
        "X_2_1_1_1_1_1_13_1_1_26_1_152",
        "X_2_1_1_1_1_1_38_1_1_27_1_152",
        "X_2_1_1_1_1_1_14_1_1_28_1_152",
        "X_2_1_1_1_1_1_39_1_1_29_1_152",
        "X_2_1_1_1_1_1_15_1_1_30_1_152",
        "X_2_1_1_1_1_1_40_1_1_31_1_152",
        "X_2_1_1_1_1_1_16_1_1_32_1_152",
        "X_2_1_1_1_1_1_41_1_1_33_1_152",
        "X_2_1_1_1_1_1_17_1_1_34_1_152",
        "X_2_1_1_1_1_1_42_1_1_35_1_152",
        "X_2_1_1_1_1_1_18_1_1_36_1_152",
        "X_2_1_1_1_1_1_43_1_1_37_1_152",
        "X_2_1_1_1_1_1_19_1_1_38_1_152",
        "X_2_1_1_1_1_1_44_1_1_39_1_152",
        "X_2_1_1_1_1_1_20_1_1_40_1_152",
        "X_2_1_1_1_1_1_45_1_1_41_1_152",
        "X_2_1_1_1_1_1_21_1_1_42_1_152",
        "X_2_1_1_1_1_1_46_1_1_43_1_152",
        "X_2_1_1_1_1_1_22_1_1_44_1_152",
        "X_2_1_1_1_1_1_47_1_1_45_1_152",
        "X_2_1_1_1_1_1_23_1_1_46_1_152",
        "X_2_1_1_1_1_1_48_1_1_47_1_152",
        "X_2_1_1_1_1_1_24_1_1_48_1_152"
      ],
      "CsaImage.ProtocolSliceNumber": [
        0,
        1,
        2,
        3,
        4,
        5,
        6,
        7,
        8,
        9,
        10,
        11,
        12,
        13,
        14,
        15,
        16,
        17,
        18,
        19,
        20,
        21,
        22,
        23,
        24,
        25,
        26,
        27,
        28,
        29,
        30,
        31,
        32,
        33,
        34,
        35,
        36,
        37,
        38,
        39,
        40,
        41,
        42,
        43,
        44,
        45,
        46,
        47
      ],
      "CsaImage.SlicePosition_PCS": [
        [
          -117.39506705,
          -132.04833379,
          -77.54607502
        ],
        [
          -117.53044112,
          -132.18449177,
          -75.05346028
        ],
        [
          -117.66581518,
          -132.32064929,
          -72.56084553
        ],
        [
          -117.80118878,
          -132.4568068,
          -70.06822697
        ],
        [
          -117.93656285,
          -132.59296479,
          -67.57561222
        ],
        [
          -118.07193644,
          -132.7291223,
          -65.08299748
        ],
        [
          -118.20731051,
          -132.86528029,
          -62.59037892
        ],
        [
          -118.3426841,
          -133.0014378,
          -60.09776417
        ],
        [
          -118.47805817,
          -133.13759532,
          -57.60514942
        ],
        [
          -118.61343224,
          -133.27375331,
          -55.11253086
        ],
        [
          -118.74880583,
          -133.40991082,
          -52.61991612
        ],
        [
          -118.8841799,
          -133.54606833,
          -50.12730137
        ],
        [
          -119.01955349,
          -133.68222632,
          -47.63468281
        ],
        [
          -119.15492756,
          -133.81838383,
          -45.14206806
        ],
        [
          -119.29030115,
          -133.95454135,
          -42.64945141
        ],
        [
          -119.42567522,
          -134.09069886,
          -40.15683476
        ],
        [
          -119.56104929,
          -134.22685685,
          -37.66422001
        ],
        [
          -119.69642288,
          -134.36301484,
          -35.17160336
        ],
        [
          -119.83179695,
          -134.49917187,
          -32.6789867
        ],
        [
          -119.96717055,
          -134.63532986,
          -30.18637196
        ],
        [
          -120.10254462,
          -134.77148785,
          -27.6937553
        ],
        [
          -120.23791868,
          -134.90764489,
          -25.20113865
        ],
        [
          -120.37329228,
          -135.04380288,
          -22.70852295
        ],
        [
          -120.50866635,
          -135.17996087,
          -20.21590677
        ],
        [
          -120.64403994,
          -135.3161179,
          -17.7232906
        ],
        [
          -120.77941401,
          -135.45227589,
          -15.23067442
        ],
        [
          -120.9147876,
          -135.58843388,
          -12.73805833
        ],
        [
          -121.05016119,
          -135.72459092,
          -10.24544231
        ],
        [
          -121.18553526,
          -135.86074891,
          -7.75282637
        ],
        [
          -121.32090933,
          -135.9969069,
          -5.26021019
        ],
        [
          -121.4562834,
          -136.13306393,
          -2.76759354
        ],
        [
          -121.59165747,
          -136.26922192,
          -0.27497784
        ],
        [
          -121.72703059,
          -136.40537991,
          2.21763786
        ],
        [
          -121.86240465,
          -136.54153695,
          4.71025356
        ],
        [
          -121.99777872,
          -136.67769494,
          7.20287021
        ],
        [
          -122.13315279,
          -136.81385293,
          9.69548687
        ],
        [
          -122.26852686,
          -136.95000996,
          12.18810352
        ],
        [
          -122.40389998,
          -137.08616795,
          14.68071827
        ],
        [
          -122.53927405,
          -137.22232594,
          17.17333492
        ],
        [
          -122.67464812,
          -137.35848298,
          19.66594967
        ],
        [
          -122.81002219,
          -137.49464097,
          22.15856823
        ],
        [
          -122.94539625,
          -137.63079896,
          24.65118297
        ],
        [
          -123.08076937,
          -137.76695599,
          27.14379772
        ],
        [
          -123.21614344,
          -137.90311398,
          29.63641628
        ],
        [
          -123.35151751,
          -138.03927197,
          32.12903103
        ],
        [
          -123.48689158,
          -138.17542901,
          34.62164577
        ],
        [
          -123.62226469,
          -138.311587,
          37.11426433
        ],
        [
          -123.75763876,
          -138.44774499,
          39.60687908
        ]
      ],
      "CsaImage.TimeAfterStart": [
        1.015,
        0.6775,
        1.03,
        0.6925,
        1.0425,
        0.705,
        1.0575,
        0.72,
        1.0725,
        0.735,
        1.085,
        0.7475,
        1.1,
        0.7625,
        1.115,
        0.7775,
        1.1275,
        0.79,
        1.1425,
        0.805,
        1.155,
        0.8175,
        1.17,
        0.8325,
        1.185,
        0.8475,
        1.1975,
        0.86,
        1.2125,
        0.875,
        1.2275,
        0.89,
        1.24,
        0.9025,
        1.255,
        0.9175,
        1.2675,
        0.93,
        1.2825,
        0.945,
        1.2975,
        0.96,
        1.31,
        0.9725,
        1.325,
        0.9875,
        1.34,
        1.0025
      ],
      "ImagePositionPatient": [
        [
          -117.39506704596,
          -132.04833378535,
          -77.546075021289
        ],
        [
          -117.53044111518,
          -132.18449177485,
          -75.053460275195
        ],
        [
          -117.66581518439,
          -132.32064928751,
          -72.560845529101
        ],
        [
          -117.80118877677,
          -132.45680680018,
          -70.06822696831
        ],
        [
          -117.93656284598,
          -132.59296478968,
          -67.575612222216
        ],
        [
          -118.07193643836,
          -132.72912230235,
          -65.082997476123
        ],
        [
          -118.20731050757,
          -132.86528029185,
          -62.590378915331
        ],
        [
          -118.34268409995,
          -133.00143780451,
          -60.097764169238
        ],
        [
          -118.47805816916,
          -133.13759531718,
          -57.605149423144
        ],
        [
          -118.61343223838,
          -133.27375330668,
          -55.112530862353
        ],
        [
          -118.74880583075,
          -133.40991081934,
          -52.619916116259
        ],
        [
          -118.88417989997,
          -133.54606833201,
          -50.127301370165
        ],
        [
          -119.01955349235,
          -133.68222632151,
          -47.634682809374
        ],
        [
          -119.15492756156,
          -133.81838383417,
          -45.142068063281
        ],
        [
          -119.29030115394,
          -133.95454134684,
          -42.649451409838
        ],
        [
          -119.42567522315,
          -134.0906988595,
          -40.156834756396
        ],
        [
          -119.56104929236,
          -134.22685684901,
          -37.664220010302
        ],
        [
          -119.69642288474,
          -134.36301483851,
          -35.17160335686
        ],
        [
          -119.83179695395,
          -134.49917187434,
          -32.678986703417
        ],
        [
          -119.96717054633,
          -134.63532986384,
          -30.186371957324
        ],
        [
          -120.10254461554,
          -134.77148785334,
          -27.693755303881
        ],
        [
          -120.23791868476,
          -134.90764488917,
          -25.201138650439
        ],
        [
          -120.37329227714,
          -135.04380287867,
          -22.708522950671
        ],
        [
          -120.50866634635,
          -135.17996086817,
          -20.215906774066
        ],
        [
          -120.64403993873,
          -135.316117904,
          -17.72329059746
        ],
        [
          -120.77941400794,
          -135.4522758935,
          -15.230674420855
        ],
        [
          -120.91478760032,
          -135.588433883,
          -12.738058333657
        ],
        [
          -121.05016119269,
          -135.72459091883,
          -10.245442306063
        ],
        [
          -121.18553526191,
          -135.86074890833,
          -7.7528263678766
        ],
        [
          -121.32090933112,
          -135.99690689783,
          -5.2602101912714
        ],
        [
          -121.45628340033,
          -136.13306393366,
          -2.767593537829
        ],
        [
          -121.59165746955,
          -136.26922192316,
          -0.274977838061
        ],
        [
          -121.72703058509,
          -136.40537991267,
          2.2176378617071
        ],
        [
          -121.8624046543,
          -136.54153694849,
          4.7102535614752
        ],
        [
          -121.99777872352,
          -136.677694938,
          7.2028702149175
        ],
        [
          -122.13315279273,
          -136.8138529275,
          9.6954868683599
        ],
        [
          -122.26852686194,
          -136.95000996333,
          12.188103521802
        ],
        [
          -122.40389997748,
          -137.08616795283,
          14.680718267896
        ],
        [
          -122.5392740467,
          -137.22232594233,
          17.173334921338
        ],
        [
          -122.67464811591,
          -137.35848297816,
          19.665949667432
        ],
        [
          -122.81002218512,
          -137.49464096766,
          22.158568228223
        ],
        [
          -122.94539625434,
          -137.63079895716,
          24.651182974317
        ],
        [
          -123.08076936988,
          -137.76695599299,
          27.143797720411
        ],
        [
          -123.21614343909,
          -137.90311398249,
          29.636416281202
        ],
        [
          -123.35151750831,
          -138.03927197199,
          32.129031027295
        ],
        [
          -123.48689157752,
          -138.17542900782,
          34.621645773389
        ],
        [
          -123.62226469306,
          -138.31158699732,
          37.11426433418
        ],
        [
          -123.75763876227,
          -138.44774498682,
          39.606879080274
        ]
      ],
      "InstanceCreationTime": [
        "194703.010000",
        "194702.960000",
        "194703.012000",
        "194702.962000",
        "194703.014000",
        "194702.964000",
        "194703.016000",
        "194702.967000",
        "194703.018000",
        "194702.969000",
        "194703.020000",
        "194702.971000",
        "194703.022000",
        "194702.973000",
        "194703.024000",
        "194702.975000",
        "194703.026000",
        "194702.977000",
        "194703.028000",
        "194702.979000",
        "194703.030000",
        "194702.981000",
        "194703.032000",
        "194702.983000",
        "194703.034000",
        "194702.985000",
        "194703.036000",
        "194702.987000",
        "194703.038000",
        "194702.989000",
        "194703.040000",
        "194702.991000",
        "194703.042000",
        "194702.993000",
        "194703.045000",
        "194702.995000",
        "194703.047000",
        "194702.998000",
        "194703.049000",
        "194703.000000",
        "194703.051000",
        "194703.002000",
        "194703.053000",
        "194703.004000",
        "194703.055000",
        "194703.006000",
        "194703.057000",
        "194703.008000"
      ],
      "InstanceNumber": [
        1,
        2,
        3,
        4,
        5,
        6,
        7,
        8,
        9,
        10,
        11,
        12,
        13,
        14,
        15,
        16,
        17,
        18,
        19,
        20,
        21,
        22,
        23,
        24,
        25,
        26,
        27,
        28,
        29,
        30,
        31,
        32,
        33,
        34,
        35,
        36,
        37,
        38,
        39,
        40,
        41,
        42,
        43,
        44,
        45,
        46,
        47,
        48
      ],
      "LargestImagePixelValue": [
        4094,
        4092,
        4092,
        4094,
        4095,
        4095,
        4092,
        4095,
        4092,
        4094,
        4094,
        4092,
        4093,
        4092,
        4095,
        4091,
        4094,
        4091,
        4094,
        4086,
        4095,
        4085,
        4092,
        4090,
        4092,
        4094,
        4092,
        4091,
        4093,
        4092,
        4094,
        4092,
        4086,
        4095,
        4094,
        4087,
        4090,
        4095,
        4093,
        4095,
        4094,
        4094,
        4090,
        4093,
        4095,
        4094,
        4094,
        4095
      ],
      "SliceLocation": [
        -63.768391204577,
        -61.268392522745,
        -58.768393866882,
        -56.26839143341,
        -53.768392751577,
        -51.268394121535,
        -48.768391636272,
        -46.26839300623,
        -43.768394350368,
        -41.268391865105,
        -38.768393235063,
        -36.2683945792,
        -33.768392119758,
        -31.268393463895,
        -28.768392932138,
        -26.268392374561,
        -23.768393692728,
        -21.268393135001,
        -18.768392603393,
        -16.268393947381,
        -13.768393363833,
        -11.268392832226,
        -8.768393225356,
        -6.2683931172371,
        -3.7683930868787,
        -1.2683929787598,
        1.2316070143958,
        3.7316068961826,
        6.2316067665872,
        8.7316068747061,
        11.231607406314,
        13.731607039004,
        16.231606620053,
        18.731606200803,
        21.231606784351,
        23.731607367899,
        26.231607899506,
        28.731606529698,
        31.231607113245,
        33.731605743138,
        36.231608228401,
        38.731606910233,
        41.231605488485,
        43.731607973748,
        46.23160665558,
        48.731605285473,
        51.231607719095,
        53.731606400927
      ],
      "SmallestImagePixelValue": [
        0,
        6,
        2,
        0,
        0,
        3,
        1,
        0,
        0,
        0,
        0,
        6,
        0,
        0,
        1,
        0,
        0,
        0,
        0,
        0,
        4,
        8,
        4,
        6,
        1,
        0,
        3,
        0,
        0,
        10,
        1,
        0,
        1,
        1,
        2,
        3,
        0,
        1,
        0,
        0,
        0,
        1,
        0,
        0,
        0,
        0,
        0,
        1
      ],
      "WindowCenter": [
        -260.0,
        -228.0,
        -236.0,
        -180.0,
        -170.0,
        -210.0,
        -210.0,
        -258.0,
        -218.0,
        -208.0,
        -192.0,
        -226.0,
        -236.0,
        -242.0,
        -206.0,
        -216.0,
        -238.0,
        -176.0,
        -202.0,
        -196.0,
        -186.0,
        -332.0,
        -294.0,
        -148.0,
        -120.0,
        -226.0,
        -228.0,
        -206.0,
        -196.0,
        -176.0,
        -166.0,
        -172.0,
        -164.0,
        -178.0,
        -192.0,
        -210.0,
        -210.0,
        -230.0,
        -246.0,
        -288.0,
        -216.0,
        -174.0,
        -190.0,
        -182.0,
        -246.0,
        -246.0,
        -260.0,
        -318.0
      ],
      "WindowWidth": [
        6098.0,
        6138.0,
        6148.0,
        6172.0,
        6122.0,
        6048.0,
        5914.0,
        5854.0,
        5822.0,
        5758.0,
        5798.0,
        5720.0,
        5556.0,
        5624.0,
        5592.0,
        5608.0,
        5542.0,
        5660.0,
        5532.0,
        5384.0,
        5336.0,
        4656.0,
        4624.0,
        5064.0,
        5010.0,
        4584.0,
        4562.0,
        4558.0,
        4544.0,
        4540.0,
        4540.0,
        4546.0,
        4536.0,
        4560.0,
        4576.0,
        4612.0,
        4618.0,
        4648.0,
        4642.0,
        4700.0,
        5318.0,
        5594.0,
        5830.0,
        5864.0,
        6028.0,
        6028.0,
        6148.0,
        6156.0
      ]
    }
  }
}