{
  "AcquisitionMatrixPE": 96,
  "AcquisitionNumber": 1,
  "AcquisitionTime": "11:25:49.260000",
  "BaseResolution": 96,
  "BodyPartExamined": "BRAIN",
  "ConsistencyInfo": "N4_VE11C_LATEST_20160120",
  "ConversionSoftware": "dcm2niix",
  "ConversionSoftwareVersion": "v1.0.20190902",
  "DeviceSerialNumber": "66112",
  "DwellTime": 8.8e-06,
  "EchoNumber": 2,
  "EchoTime": 0.00738,
  "EchoTime1": 0.00492,
  "EchoTime2": 0.00738,
  "FlipAngle": 60,
  "ImageOrientationPatientDICOM": [
    0.996395,
    -0.0169187,
    0.0831351,
    0.0203495,
    0.998968,
    -0.0405955
  ],
  "ImageType": [
    "ORIGINAL",
    "PRIMARY",
    "P",
    "ND"
  ],
  "ImagingFrequency": 123.252,
  "InPlanePhaseEncodingDirectionDICOM": "COL",
  "InstitutionAddress": "Maynard_3_Hanover_NH_US_03755",
  "InstitutionName": "Dartmouth_College_-_PBS",
  "InstitutionalDepartmentName": "Department",
  "IntendedFor": [
    "func/sub-sid000120_task-movie_run-01_bold.nii.gz",
    "func/sub-sid000120_task-movie_run-02_bold.nii.gz",
    "func/sub-sid000120_task-movie_run-03_bold.nii.gz",
    "func/sub-sid000120_task-movie_run-04_bold.nii.gz",
    "func/sub-sid000120_task-movie_run-05_bold.nii.gz"
  ],
  "MRAcquisitionType": "2D",
  "MagneticFieldStrength": 3,
  "Manufacturer": "Siemens",
  "ManufacturersModelName": "Prisma",
  "Modality": "MR",
  "PartialFourier": 1,
  "PatientPosition": "HFS",
  "PercentPhaseFOV": 100,
  "PhaseEncodingDirection": "j-",
  "PhaseEncodingSteps": 96,
  "PhaseResolution": 1,
  "PixelBandwidth": 590,
  "ProcedureStepDescription": "Gobbini_Matteo_1037_budapest",
  "ProtocolName": "fmap_acq-2.5mm",
  "PulseSequenceDetails": "%SiemensSeq%_gre_field_mapping",
  "ReceiveCoilActiveElements": "HEA;HEP",
  "ReceiveCoilName": "Head_32",
  "ReconMatrixPE": 96,
  "RepetitionTime": 0.675,
  "SAR": 0.10285,
  "ScanningSequence": "GR",
  "SequenceName": "_fm2d2r",
  "SequenceVariant": "SP",
  "SeriesDescription": "fmap_acq-2.5mm",
  "SeriesNumber": 7,
  "ShimSetting": [
    4172,
    -7687,
    -7312,
    723,
    -4,
    -61,
    -11,
    21
  ],
  "SliceThickness": 2.5,
  "SliceTiming": [
    0.33594,
    0,
    0.35156,
    0.01562,
    0.36719,
    0.03125,
    0.38281,
    0.04688,
    0.39844,
    0.05469,
    0.40625,
    0.07031,
    0.42188,
    0.08594,
    0.4375,
    0.10156,
    0.45312,
    0.10938,
    0.46875,
    0.125,
    0.47656,
    0.14062,
    0.49219,
    0.15625,
    0.50781,
    0.17188,
    0.52344,
    0.17969,
    0.53906,
    0.19531,
    0.54688,
    0.21094,
    0.5625,
    0.22656,
    0.57812,
    0.24219,
    0.59375,
    0.25,
    0.60938,
    0.26562,
    0.61719,
    0.28125,
    0.63281,
    0.29688,
    0.64844,
    0.3125,
    0.66406,
    0.32812
  ],
  "SoftwareVersions": "syngo_MR_E11",
  "SpacingBetweenSlices": 2.5,
  "StationName": "AWP66112",
  "TxRefAmp": 236.873,
  "dcmmeta_affine": [
    [
      -2.4909865856170654,
      0.05087384954094887,
      0.20590639114379883,
      114.02252960205078
    ],
    [
      0.042296793311834335,
      2.4974210262298584,
      -0.10535144805908203,
      -105.17192840576172
    ],
    [
      0.20783774554729462,
      0.1014886423945427,
      2.489276885986328,
      -80.77526092529297
    ],
    [
      0.0,
      0.0,
      0.0,
      1.0
    ]
  ],
  "dcmmeta_reorient_transform": [
    [
      0.0,
      -1.0,
      0.0,
      95.0
    ],
    [
      1.0,
      0.0,
      0.0,
      0.0
    ],
    [
      0.0,
      0.0,
      -1.0,
      47.0
    ],
    [
      0.0,
      0.0,
      0.0,
      1.0
    ]
  ],
  "dcmmeta_shape": [
    96,
    96,
    48
  ],
  "dcmmeta_slice_dim": 2,
  "dcmmeta_version": 0.6,
  "global": {
    "const": {
      "AccessionNumber": "A001249",
      "AcquisitionMatrix": [
        96,
        0,
        0,
        96
      ],
      "AcquisitionNumber": 1,
      "AngioFlag": "N",
      "BitsAllocated": 16,
      "BitsStored": 12,
      "BodyPartExamined": "BRAIN",
      "Columns": 96,
      "EchoNumbers": 2,
      "EchoTime": 7.38,
      "EchoTrainLength": 0,
      "FlipAngle": 60.0,
      "HighBit": 11,
      "ImageOrientationPatient": [
        0.99639465715042,
        -0.016918717777,
        0.08313509602376,
        0.02034953908578,
        0.99896842047186,
        -0.0405954573684
      ],
      "ImageType": [
        "ORIGINAL",
        "PRIMARY",
        "P",
        "ND"
      ],
      "ImagedNucleus": "1H",
      "ImagingFrequency": 123.252314,
      "InPlanePhaseEncodingDirection": "COL",
      "MRAcquisitionType": "2D",
      "MagneticFieldStrength": 3.0,
      "Manufacturer": "SIEMENS",
      "ManufacturerModelName": "Prisma",
      "Modality": "MR",
      "NumberOfAverages": 1.0,
      "NumberOfPhaseEncodingSteps": 96,
      "PercentPhaseFieldOfView": 100.0,
      "PercentSampling": 100.0,
      "PerformedProcedureStepStartTime": "111113.347000",
      "PhotometricInterpretation": "MONOCHROME2",
      "PixelBandwidth": 590.0,
      "PixelRepresentation": 0,
      "PixelSpacing": [
        2.5,
        2.5
      ],
      "ProtocolName": "fmap_acq-2.5mm",
      "RepetitionTime": 675.0,
      "RescaleIntercept": -4096.0,
      "RescaleSlope": 2.0,
      "RescaleType": "US",
      "Rows": 96,
      "SAR": 0.1028497938672,
      "SamplesPerPixel": 1,
      "ScanningSequence": "GR",
      "SequenceName": "*fm2d2r",
      "SequenceVariant": "SP",
      "SeriesDescription": "fmap_acq-2.5mm",
      "SeriesNumber": 7,
      "SeriesTime": "112758.465000",
      "SliceThickness": 2.5,
      "SoftwareVersions": "syngo MR E11",
      "SpacingBetweenSlices": 2.5,
      "SpecificCharacterSet": "ISO_IR 100",
      "StudyID": "2",
      "StudyTime": "111113.306000",
      "TransmitCoilName": "Body",
      "VariableFlipAngleFlag": "N",
      "WindowCenterWidthExplanation": "Algo1",
      "dBdt": 0.0
    },
    "slices": {
      "AcquisitionTime": [
        "112549.260000",
        "112548.922500",
        "112549.275000",
        "112548.937500",
        "112549.287500",
        "112548.950000",
        "112549.302500",
        "112548.965000",
        "112549.317500",
        "112548.980000",
        "112549.330000",
        "112548.992500",
        "112549.345000",
        "112549.007500",
        "112549.360000",
        "112549.022500",
        "112549.372500",
        "112549.035000",
        "112549.387500",
        "112549.050000",
        "112549.400000",
        "112549.062500",
        "112549.415000",
        "112549.077500",
        "112549.430000",
        "112549.092500",
        "112549.442500",
        "112549.105000",
        "112549.457500",
        "112549.120000",
        "112549.472500",
        "112549.135000",
        "112549.485000",
        "112549.147500",
        "112549.500000",
        "112549.162500",
        "112549.512500",
        "112549.175000",
        "112549.527500",
        "112549.190000",
        "112549.542500",
        "112549.205000",
        "112549.555000",
        "112549.217500",
        "112549.570000",
        "112549.232500",
        "112549.585000",
        "112549.247500"
      ],
      "ContentTime": [
        "112758.526000",
        "112758.467000",
        "112758.528000",
        "112758.469000",
        "112758.530000",
        "112758.471000",
        "112758.532000",
        "112758.473000",
        "112758.534000",
        "112758.475000",
        "112758.536000",
        "112758.477000",
        "112758.538000",
        "112758.479000",
        "112758.540000",
        "112758.481000",
        "112758.542000",
        "112758.483000",
        "112758.544000",
        "112758.485000",
        "112758.546000",
        "112758.487000",
        "112758.548000",
        "112758.489000",
        "112758.550000",
        "112758.491000",
        "112758.552000",
        "112758.493000",
        "112758.554000",
        "112758.495000",
        "112758.556000",
        "112758.497000",
        "112758.558000",
        "112758.499000",
        "112758.560000",
        "112758.502000",
        "112758.562000",
        "112758.504000",
        "112758.564000",
        "112758.506000",
        "112758.566000",
        "112758.508000",
        "112758.568000",
        "112758.510000",
        "112758.570000",
        "112758.522000",
        "112758.572000",
        "112758.524000"
      ],
      "CsaImage.ICE_Dims": [
        "X_2_1_1_1_1_1_25_1_1_1_1_38",
        "X_2_1_1_1_1_1_1_1_1_2_1_38",
        "X_2_1_1_1_1_1_26_1_1_3_1_38",
        "X_2_1_1_1_1_1_2_1_1_4_1_38",
        "X_2_1_1_1_1_1_27_1_1_5_1_38",
        "X_2_1_1_1_1_1_3_1_1_6_1_38",
        "X_2_1_1_1_1_1_28_1_1_7_1_38",
        "X_2_1_1_1_1_1_4_1_1_8_1_38",
        "X_2_1_1_1_1_1_29_1_1_9_1_38",
        "X_2_1_1_1_1_1_5_1_1_10_1_38",
        "X_2_1_1_1_1_1_30_1_1_11_1_38",
        "X_2_1_1_1_1_1_6_1_1_12_1_38",
        "X_2_1_1_1_1_1_31_1_1_13_1_38",
        "X_2_1_1_1_1_1_7_1_1_14_1_38",
        "X_2_1_1_1_1_1_32_1_1_15_1_38",
        "X_2_1_1_1_1_1_8_1_1_16_1_38",
        "X_2_1_1_1_1_1_33_1_1_17_1_38",
        "X_2_1_1_1_1_1_9_1_1_18_1_38",
        "X_2_1_1_1_1_1_34_1_1_19_1_38",
        "X_2_1_1_1_1_1_10_1_1_20_1_38",
        "X_2_1_1_1_1_1_35_1_1_21_1_38",
        "X_2_1_1_1_1_1_11_1_1_22_1_38",
        "X_2_1_1_1_1_1_36_1_1_23_1_38",
        "X_2_1_1_1_1_1_12_1_1_24_1_38",
        "X_2_1_1_1_1_1_37_1_1_25_1_38",
        "X_2_1_1_1_1_1_13_1_1_26_1_38",
        "X_2_1_1_1_1_1_38_1_1_27_1_38",
        "X_2_1_1_1_1_1_14_1_1_28_1_38",
        "X_2_1_1_1_1_1_39_1_1_29_1_38",
        "X_2_1_1_1_1_1_15_1_1_30_1_38",
        "X_2_1_1_1_1_1_40_1_1_31_1_38",
        "X_2_1_1_1_1_1_16_1_1_32_1_38",
        "X_2_1_1_1_1_1_41_1_1_33_1_38",
        "X_2_1_1_1_1_1_17_1_1_34_1_38",
        "X_2_1_1_1_1_1_42_1_1_35_1_38",
        "X_2_1_1_1_1_1_18_1_1_36_1_38",
        "X_2_1_1_1_1_1_43_1_1_37_1_38",
        "X_2_1_1_1_1_1_19_1_1_38_1_38",
        "X_2_1_1_1_1_1_44_1_1_39_1_38",
        "X_2_1_1_1_1_1_20_1_1_40_1_38",
        "X_2_1_1_1_1_1_45_1_1_41_1_38",
        "X_2_1_1_1_1_1_21_1_1_42_1_38",
        "X_2_1_1_1_1_1_46_1_1_43_1_38",
        "X_2_1_1_1_1_1_22_1_1_44_1_38",
        "X_2_1_1_1_1_1_47_1_1_45_1_38",
        "X_2_1_1_1_1_1_23_1_1_46_1_38",
        "X_2_1_1_1_1_1_48_1_1_47_1_38",
        "X_2_1_1_1_1_1_24_1_1_48_1_38"
      ],
      "CsaImage.ProtocolSliceNumber": [
        0,
        1,
        2,
        3,
        4,
        5,
        6,
        7,
        8,
        9,
        10,
        11,
        12,
        13,
        14,
        15,
        16,
        17,
        18,
        19,
        20,
        21,
        22,
        23,
        24,
        25,
        26,
        27,
        28,
        29,
        30,
        31,
        32,
        33,
        34,
        35,
        36,
        37,
        38,
        39,
        40,
        41,
        42,
        43,
        44,
        45,
        46,
        47
      ],
      "CsaImage.SlicePosition_PCS": [
        [
          -118.85555384,
          -132.08310307,
          -71.13387804
        ],
        [
          -119.06146024,
          -131.97775067,
          -68.64459734
        ],
        [
          -119.26736639,
          -131.87239827,
          -66.15532045
        ],
        [
          -119.47327278,
          -131.76704682,
          -63.66604356
        ],
        [
          -119.67917893,
          -131.66169442,
          -61.17676286
        ],
        [
          -119.88508532,
          -131.55634202,
          -58.68748598
        ],
        [
          -120.09099159,
          -131.45098961,
          -56.19820909
        ],
        [
          -120.29689787,
          -131.34563817,
          -53.70893221
        ],
        [
          -120.50280414,
          -131.24028577,
          -51.21965532
        ],
        [
          -120.70871041,
          -131.13493336,
          -48.73037462
        ],
        [
          -120.91461668,
          -131.02958096,
          -46.24109773
        ],
        [
          -121.12052295,
          -130.92422951,
          -43.75182085
        ],
        [
          -121.32642923,
          -130.81887711,
          -41.26254396
        ],
        [
          -121.5323355,
          -130.71352471,
          -38.77326326
        ],
        [
          -121.73824177,
          -130.60817326,
          -36.28398637
        ],
        [
          -121.94414805,
          -130.50282086,
          -33.79470949
        ],
        [
          -122.15005433,
          -130.39746846,
          -31.3054326
        ],
        [
          -122.35596059,
          -130.29211606,
          -28.81615381
        ],
        [
          -122.56186686,
          -130.18676461,
          -26.32687692
        ],
        [
          -122.76777313,
          -130.08141221,
          -23.83759813
        ],
        [
          -122.9736794,
          -129.97605981,
          -21.34832124
        ],
        [
          -123.17958567,
          -129.8707074,
          -18.8590434
        ],
        [
          -123.38549195,
          -129.76535596,
          -16.36976557
        ],
        [
          -123.59139822,
          -129.66000355,
          -13.88048773
        ],
        [
          -123.79730449,
          -129.55465115,
          -11.39120989
        ],
        [
          -124.00321076,
          -129.4492997,
          -8.90193228
        ],
        [
          -124.20911715,
          -129.3439473,
          -6.41265456
        ],
        [
          -124.41502331,
          -129.2385949,
          -3.92337684
        ],
        [
          -124.6209297,
          -129.1332425,
          -1.43409924
        ],
        [
          -124.82683585,
          -129.02789105,
          1.05517836
        ],
        [
          -125.03274224,
          -128.92253865,
          3.5444562
        ],
        [
          -125.23864839,
          -128.81718625,
          6.03373404
        ],
        [
          -125.44455478,
          -128.71183385,
          8.52301188
        ],
        [
          -125.65046094,
          -128.6064824,
          11.01228972
        ],
        [
          -125.85636733,
          -128.50113,
          13.5015666
        ],
        [
          -126.06227348,
          -128.39577759,
          15.9908454
        ],
        [
          -126.26817987,
          -128.29042615,
          18.48012228
        ],
        [
          -126.47408626,
          -128.18507374,
          20.96940108
        ],
        [
          -126.67999218,
          -128.07972134,
          23.45867796
        ],
        [
          -126.88589857,
          -127.97436894,
          25.94795485
        ],
        [
          -127.09180496,
          -127.86901749,
          28.43723173
        ],
        [
          -127.29771135,
          -127.76366509,
          30.92651243
        ],
        [
          -127.50361727,
          -127.65831269,
          33.41578932
        ],
        [
          -127.70952366,
          -127.55296124,
          35.90506621
        ],
        [
          -127.91543005,
          -127.44760884,
          38.39434309
        ],
        [
          -128.12133644,
          -127.34225644,
          40.88362379
        ],
        [
          -128.32724235,
          -127.23690404,
          43.37290068
        ],
        [
          -128.53314874,
          -127.13155259,
          45.86217757
        ]
      ],
      "CsaImage.TimeAfterStart": [
        1.015,
        0.6775,
        1.03,
        0.6925,
        1.0425,
        0.705,
        1.0575,
        0.72,
        1.0725,
        0.735,
        1.085,
        0.7475,
        1.1,
        0.7625,
        1.115,
        0.7775,
        1.1275,
        0.79,
        1.1425,
        0.805,
        1.155,
        0.8175,
        1.17,
        0.8325,
        1.185,
        0.8475,
        1.1975,
        0.86,
        1.2125,
        0.875,
        1.2275,
        0.89,
        1.24,
        0.9025,
        1.255,
        0.9175,
        1.2675,
        0.93,
        1.2825,
        0.945,
        1.2975,
        0.96,
        1.31,
        0.9725,
        1.325,
        0.9875,
        1.34,
        1.0025
      ],
      "ImagePositionPatient": [
        [
          -118.85555384398,
          -132.08310307155,
          -71.133878037565
        ],
        [
          -119.06146023513,
          -131.97775066982,
          -68.644597336882
        ],
        [
          -119.26736638785,
          -131.87239826809,
          -66.155320450895
        ],
        [
          -119.473272779,
          -131.76704682003,
          -63.666043564909
        ],
        [
          -119.67917893172,
          -131.66169441829,
          -61.176762864225
        ],
        [
          -119.88508532286,
          -131.55634201656,
          -58.687485978239
        ],
        [
          -120.0909915948,
          -131.45098961483,
          -56.198209092253
        ],
        [
          -120.29689786673,
          -131.34563816677,
          -53.708932206266
        ],
        [
          -120.50280413867,
          -131.24028576503,
          -51.21965532028
        ],
        [
          -120.7087104106,
          -131.1349333633,
          -48.730374619597
        ],
        [
          -120.91461668254,
          -131.02958096157,
          -46.24109773361
        ],
        [
          -121.12052295447,
          -130.92422951351,
          -43.751820847624
        ],
        [
          -121.32642922641,
          -130.81887711178,
          -41.262543961638
        ],
        [
          -121.53233549834,
          -130.71352471004,
          -38.773263260954
        ],
        [
          -121.73824177028,
          -130.60817326198,
          -36.283986374968
        ],
        [
          -121.94414804966,
          -130.50282086025,
          -33.794709488981
        ],
        [
          -122.15005432905,
          -130.39746845852,
          -31.305432602995
        ],
        [
          -122.35596058608,
          -130.29211605678,
          -28.81615380966
        ],
        [
          -122.56186685801,
          -130.18676460872,
          -26.326876923674
        ],
        [
          -122.76777312995,
          -130.08141220699,
          -23.837598130339
        ],
        [
          -122.97367940188,
          -129.97605980526,
          -21.348321244352
        ],
        [
          -123.17958567382,
          -129.87070740352,
          -18.859043404692
        ],
        [
          -123.38549194575,
          -129.76535595546,
          -16.369765565031
        ],
        [
          -123.59139821769,
          -129.66000355373,
          -13.88048772537
        ],
        [
          -123.79730448962,
          -129.554651152,
          -11.39120988571
        ],
        [
          -124.00321076156,
          -129.44929970394,
          -8.9019322844677
        ],
        [
          -124.2091171527,
          -129.3439473022,
          -6.4126545640164
        ],
        [
          -124.41502330542,
          -129.23859490047,
          -3.923376843565
        ],
        [
          -124.62092969657,
          -129.13324249874,
          -1.434099242323
        ],
        [
          -124.82683584929,
          -129.02789105068,
          1.0551783589191
        ],
        [
          -125.03274224044,
          -128.92253864895,
          3.5444561985798
        ],
        [
          -125.23864839316,
          -128.81718624721,
          6.0337340382404
        ],
        [
          -125.44455478431,
          -128.71183384548,
          8.523011877901
        ],
        [
          -125.65046093703,
          -128.60648239742,
          11.012289717562
        ],
        [
          -125.85636732817,
          -128.50112999569,
          13.501566603548
        ],
        [
          -126.0622734809,
          -128.39577759395,
          15.990845396883
        ],
        [
          -126.26817987204,
          -128.29042614589,
          18.480122282869
        ],
        [
          -126.47408626319,
          -128.18507374416,
          20.969401076204
        ],
        [
          -126.67999217749,
          -128.07972134243,
          23.458677962191
        ],
        [
          -126.88589856864,
          -127.97436894069,
          25.947954848177
        ],
        [
          -127.09180495978,
          -127.86901749263,
          28.437231734163
        ],
        [
          -127.29771135093,
          -127.7636650909,
          30.926512434847
        ],
        [
          -127.50361726523,
          -127.65831268917,
          33.415789320833
        ],
        [
          -127.70952365638,
          -127.55296124111,
          35.90506620682
        ],
        [
          -127.91543004752,
          -127.44760883938,
          38.394343092806
        ],
        [
          -128.12133643866,
          -127.34225643764,
          40.883623793489
        ],
        [
          -128.32724235297,
          -127.23690403591,
          43.372900679476
        ],
        [
          -128.53314874411,
          -127.13155258785,
          45.862177565462
        ]
      ],
      "InstanceCreationTime": [
        "112758.526000",
        "112758.467000",
        "112758.528000",
        "112758.469000",
        "112758.530000",
        "112758.471000",
        "112758.532000",
        "112758.473000",
        "112758.534000",
        "112758.475000",
        "112758.536000",
        "112758.477000",
        "112758.538000",
        "112758.479000",
        "112758.540000",
        "112758.481000",
        "112758.542000",
        "112758.483000",
        "112758.544000",
        "112758.485000",
        "112758.546000",
        "112758.487000",
        "112758.548000",
        "112758.489000",
        "112758.550000",
        "112758.491000",
        "112758.552000",
        "112758.493000",
        "112758.554000",
        "112758.495000",
        "112758.556000",
        "112758.497000",
        "112758.558000",
        "112758.499000",
        "112758.560000",
        "112758.502000",
        "112758.562000",
        "112758.504000",
        "112758.564000",
        "112758.506000",
        "112758.566000",
        "112758.508000",
        "112758.568000",
        "112758.510000",
        "112758.570000",
        "112758.522000",
        "112758.572000",
        "112758.524000"
      ],
      "InstanceNumber": [
        1,
        2,
        3,
        4,
        5,
        6,
        7,
        8,
        9,
        10,
        11,
        12,
        13,
        14,
        15,
        16,
        17,
        18,
        19,
        20,
        21,
        22,
        23,
        24,
        25,
        26,
        27,
        28,
        29,
        30,
        31,
        32,
        33,
        34,
        35,
        36,
        37,
        38,
        39,
        40,
        41,
        42,
        43,
        44,
        45,
        46,
        47,
        48
      ],
      "LargestImagePixelValue": [
        4095,
        4094,
        4095,
        4093,
        4094,
        4093,
        4095,
        4094,
        4094,
        4093,
        4095,
        4094,
        4093,
        4093,
        4092,
        4092,
        4091,
        4093,
        4095,
        4093,
        4092,
        4095,
        4091,
        4085,
        4087,
        4093,
        4095,
        4093,
        4090,
        4091,
        4094,
        4093,
        4095,
        4094,
        4093,
        4089,
        4090,
        4093,
        4094,
        4094,
        4091,
        4093,
        4095,
        4095,
        4093,
        4092,
        4094,
        4094
      ],
      "SliceLocation": [
        -66.605644092608,
        -64.105641097157,
        -61.60564191968,
        -59.105642762755,
        -56.605639786941,
        -54.105640589827,
        -51.605641402531,
        -49.105642255425,
        -46.605643068129,
        -44.105640082497,
        -41.605640895201,
        -39.105641748094,
        -36.605642560799,
        -34.105639575167,
        -31.60564042806,
        -29.105641240151,
        -26.605642052241,
        -24.105640967005,
        -21.605641819898,
        -19.105640733434,
        -16.605641546139,
        -14.105641409259,
        -11.605641312568,
        -9.1056411756882,
        -6.6056410388085,
        -4.1056411795135,
        -1.6056411515135,
        0.89435885684984,
        3.3943587661519,
        5.8943586156285,
        8.3943587623266,
        10.894358889388,
        13.394359036086,
        15.894359122959,
        18.394358320073,
        20.894359396718,
        23.394358553643,
        25.894359649925,
        28.394358807766,
        30.89435800488,
        33.394357161805,
        35.894360157256,
        38.394359315096,
        40.894358472021,
        43.394357669135,
        45.894360664586,
        48.394359822426,
        50.894358979351
      ],
      "SmallestImagePixelValue": [
        0,
        1,
        0,
        0,
        0,
        0,
        0,
        0,
        0,
        1,
        0,
        2,
        0,
        0,
        1,
        0,
        0,
        0,
        2,
        0,
        0,
        0,
        0,
        0,
        2,
        0,
        2,
        4,
        0,
        10,
        1,
        4,
        1,
        2,
        2,
        2,
        0,
        2,
        1,
        2,
        0,
        0,
        1,
        3,
        0,
        0,
        0,
        0
      ],
      "WindowCenter": [
        -262.0,
        -230.0,
        -212.0,
        -210.0,
        -236.0,
        -198.0,
        -144.0,
        -198.0,
        -224.0,
        -232.0,
        -200.0,
        -238.0,
        -220.0,
        -228.0,
        -242.0,
        -174.0,
        -190.0,
        -202.0,
        -206.0,
        -380.0,
        -196.0,
        -332.0,
        -360.0,
        -364.0,
        -330.0,
        -284.0,
        -250.0,
        -122.0,
        -216.0,
        -212.0,
        -204.0,
        -70.0,
        -172.0,
        -196.0,
        -64.0,
        -220.0,
        -98.0,
        -208.0,
        -216.0,
        -198.0,
        -238.0,
        -288.0,
        -176.0,
        -242.0,
        -262.0,
        -266.0,
        -288.0,
        -340.0
      ],
      "WindowWidth": [
        6274.0,
        6190.0,
        6188.0,
        6202.0,
        6194.0,
        6286.0,
        6328.0,
        6302.0,
        6150.0,
        6066.0,
        5960.0,
        5804.0,
        5690.0,
        5316.0,
        5240.0,
        5496.0,
        5422.0,
        5256.0,
        5228.0,
        4672.0,
        5230.0,
        4638.0,
        4648.0,
        4634.0,
        4634.0,
        4618.0,
        4606.0,
        5070.0,
        4598.0,
        4612.0,
        4604.0,
        5012.0,
        4604.0,
        4618.0,
        5152.0,
        4658.0,
        5166.0,
        4688.0,
        4698.0,
        4696.0,
        4748.0,
        4788.0,
        5544.0,
        5638.0,
        5726.0,
        5808.0,
        6072.0,
        6006.0
      ]
    }
  }
}