{
  "AcquisitionMatrixPE": 96,
  "AcquisitionNumber": 1,
  "AcquisitionTime": "18:48:6.155000",
  "BandwidthPerPixelPhaseEncode": 18.939,
  "BaseResolution": 96,
  "BodyPartExamined": "BRAIN",
  "ConsistencyInfo": "N4_VE11C_LATEST_20160120",
  "ConversionSoftware": "dcm2niix",
  "ConversionSoftwareVersion": "v1.0.20190902",
  "DerivedVendorReportedEchoSpacing": 0.000550011,
  "DeviceSerialNumber": "66112",
  "DwellTime": 2.2e-06,
  "EchoTime": 0.033,
  "EchoTrainLength": 96,
  "EffectiveEchoSpacing": 0.000550011,
  "FlipAngle": 59,
  "ImageOrientationPatientDICOM": [0.999399, 0.0245638, 0.024467, -0.027043, 0.993916, 0.106772],
  "ImageType": [
    "ORIGINAL",
    "PRIMARY",
    "FMRI",
    "NONE",
    "ND",
    "NORM",
    "MOSAIC"
],
  "ImagingFrequency": 123.252,
  "InPlanePhaseEncodingDirectionDICOM": "COL",
  "InstitutionAddress": "Maynard_3_Hanover_NH_US_03755",
  "InstitutionName": "Dartmouth_College_-_PBS",
  "InstitutionalDepartmentName": "Department",
  "MRAcquisitionType": "2D",
  "MagneticFieldStrength": 3,
  "Manufacturer": "Siemens",
  "ManufacturersModelName": "Prisma",
  "Modality": "MR",
  "MultibandAccelerationFactor": 4,
  "PartialFourier": 1,
  "PatientPosition": "HFS",
  "PercentPhaseFOV": 100,
  "PhaseEncodingDirection": "j-",
  "PhaseEncodingSteps": 96,
  "PhaseResolution": 1,
  "PixelBandwidth": 2365,
  "ProcedureStepDescription": "Gobbini_Matteo_1037_budapest",
  "ProtocolName": "func_run-04_task-movie",
  "PulseSequenceDetails": "%SiemensSeq%_ep2d_bold",
  "ReceiveCoilActiveElements": "HEA;HEP",
  "ReceiveCoilName": "Head_32",
  "ReconMatrixPE": 96,
  "RefLinesPE": 12,
  "RepetitionTime": 1,
  "SAR": 0.0544842,
  "ScanOptions": "FS",
  "ScanningSequence": "EP",
  "SequenceName": "_epfid2d1_96",
  "SequenceVariant": "SK",
  "SeriesDescription": "func_run-04_task-movie",
  "SeriesNumber": 29,
  "ShimSetting": [4134, -7750, -7292, 548, -120, -118, 12, 93],
  "SliceThickness": 2.5,
  "SliceTiming": [0.735, 0, 0.49, 0.0825, 0.5725, 0.165, 0.655, 0.3275, 0.8175, 0.41, 0.9, 0.245, 0.735, 0, 0.49, 0.0825, 0.5725, 0.165, 0.655, 0.3275, 0.8175, 0.41, 0.9, 0.245, 0.735, 0, 0.49, 0.0825, 0.5725, 0.165, 0.655, 0.3275, 0.8175, 0.41, 0.9, 0.245, 0.735, 0, 0.49, 0.0825, 0.5725, 0.165, 0.655, 0.3275, 0.8175, 0.41, 0.9, 0.245],
  "SoftwareVersions": "syngo_MR_E11",
  "SpacingBetweenSlices": 2.5,
  "StationName": "AWP66112",
  "TaskName": "movie",
  "TotalReadoutTime": 0.0522511,
  "TxRefAmp": 240.324,
  "dcmmeta_affine": [
    [-2.4984970092773438, -0.06760742515325546, 0.054238494485616684, 125.6183853149414],
    [-0.06140945851802826, 2.4847893714904785, 0.2684229612350464, -99.47798156738281],
    [0.06116744503378868, -0.2669292986392975, 2.4849562644958496, -59.72005844116211],
    [0.0, 0.0, 0.0, 1.0]
],
  "dcmmeta_reorient_transform": [
    [0.0, -1.0, 0.0, 95.0],
    [1.0, 0.0, 0.0, 0.0],
    [0.0, 0.0, 1.0, 0.0],
    [0.0, 0.0, 0.0, 1.0]
],
  "dcmmeta_shape": [96, 96, 48, 618],
  "dcmmeta_slice_dim": 2,
  "dcmmeta_version": 0.6,
  "global": {
    "const": {
      "AccessionNumber": "A001586",
      "AcquisitionMatrix": [96, 0, 0, 96],
      "AngioFlag": "N",
      "BitsAllocated": 16,
      "BitsStored": 12,
      "BodyPartExamined": "BRAIN",
      "Columns": 672,
      "EchoNumbers": 1,
      "EchoTime": 33.0,
      "EchoTrainLength": 96,
      "FlipAngle": 59.0,
      "HighBit": 11,
      "ImageOrientationPatient": [0.99939881303735, 0.02456378358673, 0.02446697846982, -0.0270429701125, 0.99391572975592, 0.10677171868642],
      "ImagePositionPatient": [-819.29188518012, -869.88225585321, -179.57020226651],
      "ImageType": [
        "ORIGINAL",
        "PRIMARY",
        "FMRI",
        "NONE",
        "ND",
        "NORM",
        "MOSAIC"
],
      "ImagedNucleus": "1H",
      "ImagingFrequency": 123.25232,
      "InPlanePhaseEncodingDirection": "COL",
      "MRAcquisitionType": "2D",
      "MagneticFieldStrength": 3.0,
      "Manufacturer": "SIEMENS",
      "ManufacturerModelName": "Prisma",
      "Modality": "MR",
      "NumberOfAverages": 1.0,
      "NumberOfPhaseEncodingSteps": 96,
      "PercentPhaseFieldOfView": 100.0,
      "PercentSampling": 100.0,
      "PerformedProcedureStepStartTime": "175735.320000",
      "PhotometricInterpretation": "MONOCHROME2",
      "PixelBandwidth": 2365.0,
      "PixelRepresentation": 0,
      "PixelSpacing": [2.5, 2.5],
      "ProtocolName": "func_run-04_task-movie",
      "RepetitionTime": 1000.0,
      "Rows": 672,
      "SAR": 0.05448417865325,
      "SamplesPerPixel": 1,
      "ScanOptions": "FS",
      "ScanningSequence": "EP",
      "SequenceName": "*epfid2d1_96",
      "SequenceVariant": "SK",
      "SeriesDescription": "func_run-04_task-movie",
      "SeriesNumber": 29,
      "SeriesTime": "184807.990000",
      "SliceLocation": -67.316219590968,
      "SliceThickness": 2.5,
      "SmallestImagePixelValue": 0,
      "SoftwareVersions": "syngo MR E11",
      "SpacingBetweenSlices": 2.5000000168408,
      "SpecificCharacterSet": "ISO_IR 100",
      "StudyID": "1",
      "StudyTime": "175735.259000",
      "TransmitCoilName": "Body",
      "VariableFlipAngleFlag": "N",
      "WindowCenterWidthExplanation": "Algo1",
      "dBdt": 0.0},
    "slices": {}
  },
  "time": {
    "samples": {
      "AcquisitionNumber": [1, 2, 3, 4, 5, 6, 7, 8, 9, 10, 11, 12, 13, 14, 15, 16, 17, 18, 19, 20, 21, 22, 23, 24, 25, 26, 27, 28, 29, 30, 31, 32, 33, 34, 35, 36, 37, 38, 39, 40, 41, 42, 43, 44, 45, 46, 47, 48, 49, 50, 51, 52, 53, 54, 55, 56, 57, 58, 59, 60, 61, 62, 63, 64, 65, 66, 67, 68, 69, 70, 71, 72, 73, 74, 75, 76, 77, 78, 79, 80, 81, 82, 83, 84, 85, 86, 87, 88, 89, 90, 91, 92, 93, 94, 95, 96, 97, 98, 99, 100, 101, 102, 103, 104, 105, 106, 107, 108, 109, 110, 111, 112, 113, 114, 115, 116, 117, 118, 119, 120, 121, 122, 123, 124, 125, 126, 127, 128, 129, 130, 131, 132, 133, 134, 135, 136, 137, 138, 139, 140, 141, 142, 143, 144, 145, 146, 147, 148, 149, 150, 151, 152, 153, 154, 155, 156, 157, 158, 159, 160, 161, 162, 163, 164, 165, 166, 167, 168, 169, 170, 171, 172, 173, 174, 175, 176, 177, 178, 179, 180, 181, 182, 183, 184, 185, 186, 187, 188, 189, 190, 191, 192, 193, 194, 195, 196, 197, 198, 199, 200, 201, 202, 203, 204, 205, 206, 207, 208, 209, 210, 211, 212, 213, 214, 215, 216, 217, 218, 219, 220, 221, 222, 223, 224, 225, 226, 227, 228, 229, 230, 231, 232, 233, 234, 235, 236, 237, 238, 239, 240, 241, 242, 243, 244, 245, 246, 247, 248, 249, 250, 251, 252, 253, 254, 255, 256, 257, 258, 259, 260, 261, 262, 263, 264, 265, 266, 267, 268, 269, 270, 271, 272, 273, 274, 275, 276, 277, 278, 279, 280, 281, 282, 283, 284, 285, 286, 287, 288, 289, 290, 291, 292, 293, 294, 295, 296, 297, 298, 299, 300, 301, 302, 303, 304, 305, 306, 307, 308, 309, 310, 311, 312, 313, 314, 315, 316, 317, 318, 319, 320, 321, 322, 323, 324, 325, 326, 327, 328, 329, 330, 331, 332, 333, 334, 335, 336, 337, 338, 339, 340, 341, 342, 343, 344, 345, 346, 347, 348, 349, 350, 351, 352, 353, 354, 355, 356, 357, 358, 359, 360, 361, 362, 363, 364, 365, 366, 367, 368, 369, 370, 371, 372, 373, 374, 375, 376, 377, 378, 379, 380, 381, 382, 383, 384, 385, 386, 387, 388, 389, 390, 391, 392, 393, 394, 395, 396, 397, 398, 399, 400, 401, 402, 403, 404, 405, 406, 407, 408, 409, 410, 411, 412, 413, 414, 415, 416, 417, 418, 419, 420, 421, 422, 423, 424, 425, 426, 427, 428, 429, 430, 431, 432, 433, 434, 435, 436, 437, 438, 439, 440, 441, 442, 443, 444, 445, 446, 447, 448, 449, 450, 451, 452, 453, 454, 455, 456, 457, 458, 459, 460, 461, 462, 463, 464, 465, 466, 467, 468, 469, 470, 471, 472, 473, 474, 475, 476, 477, 478, 479, 480, 481, 482, 483, 484, 485, 486, 487, 488, 489, 490, 491, 492, 493, 494, 495, 496, 497, 498, 499, 500, 501, 502, 503, 504, 505, 506, 507, 508, 509, 510, 511, 512, 513, 514, 515, 516, 517, 518, 519, 520, 521, 522, 523, 524, 525, 526, 527, 528, 529, 530, 531, 532, 533, 534, 535, 536, 537, 538, 539, 540, 541, 542, 543, 544, 545, 546, 547, 548, 549, 550, 551, 552, 553, 554, 555, 556, 557, 558, 559, 560, 561, 562, 563, 564, 565, 566, 567, 568, 569, 570, 571, 572, 573, 574, 575, 576, 577, 578, 579, 580, 581, 582, 583, 584, 585, 586, 587, 588, 589, 590, 591, 592, 593, 594, 595, 596, 597, 598, 599, 600, 601, 602, 603, 604, 605, 606, 607, 608, 609, 610, 611, 612, 613, 614, 615, 616, 617, 618],
      "AcquisitionTime": ["184806.155000", "184807.155000", "184808.155000", "184809.155000", "184810.155000", "184811.155000", "184812.155000", "184813.155000", "184814.155000", "184815.155000", "184816.155000", "184817.155000", "184818.155000", "184819.155000", "184820.155000", "184821.155000", "184822.155000", "184823.155000", "184824.155000", "184825.155000", "184826.155000", "184827.155000", "184828.155000", "184829.155000", "184830.155000", "184831.155000", "184832.155000", "184833.155000", "184834.155000", "184835.155000", "184836.155000", "184837.155000", "184838.155000", "184839.155000", "184840.155000", "184841.155000", "184842.155000", "184843.155000", "184844.155000", "184845.155000", "184846.155000", "184847.155000", "184848.155000", "184849.155000", "184850.155000", "184851.155000", "184852.155000", "184853.155000", "184854.155000", "184855.155000", "184856.155000", "184857.155000", "184858.155000", "184859.155000", "184900.155000", "184901.155000", "184902.155000", "184903.155000", "184904.155000", "184905.155000", "184906.155000", "184907.155000", "184908.155000", "184909.155000", "184910.155000", "184911.155000", "184912.155000", "184913.155000", "184914.155000", "184915.155000", "184916.155000", "184917.155000", "184918.155000", "184919.155000", "184920.155000", "184921.155000", "184922.155000", "184923.155000", "184924.155000", "184925.155000", "184926.155000", "184927.155000", "184928.155000", "184929.155000", "184930.155000", "184931.155000", "184932.155000", "184933.155000", "184934.155000", "184935.155000", "184936.155000", "184937.155000", "184938.155000", "184939.155000", "184940.155000", "184941.155000", "184942.155000", "184943.155000", "184944.155000", "184945.155000", "184946.155000", "184947.155000", "184948.155000", "184949.155000", "184950.155000", "184951.155000", "184952.155000", "184953.155000", "184954.155000", "184955.155000", "184956.155000", "184957.155000", "184958.155000", "184959.155000", "185000.155000", "185001.155000", "185002.155000", "185003.155000", "185004.155000", "185005.155000", "185006.155000", "185007.155000", "185008.155000", "185009.155000", "185010.155000", "185011.155000", "185012.155000", "185013.155000", "185014.155000", "185015.155000", "185016.155000", "185017.155000", "185018.155000", "185019.155000", "185020.155000", "185021.155000", "185022.155000", "185023.155000", "185024.155000", "185025.155000", "185026.155000", "185027.155000", "185028.155000", "185029.155000", "185030.155000", "185031.155000", "185032.155000", "185033.155000", "185034.155000", "185035.155000", "185036.155000", "185037.155000", "185038.155000", "185039.155000", "185040.155000", "185041.155000", "185042.155000", "185043.155000", "185044.155000", "185045.155000", "185046.155000", "185047.155000", "185048.155000", "185049.155000", "185050.155000", "185051.155000", "185052.155000", "185053.155000", "185054.155000", "185055.155000", "185056.155000", "185057.155000", "185058.155000", "185059.155000", "185100.155000", "185101.155000", "185102.155000", "185103.155000", "185104.155000", "185105.155000", "185106.155000", "185107.155000", "185108.155000", "185109.155000", "185110.155000", "185111.155000", "185112.155000", "185113.155000", "185114.155000", "185115.155000", "185116.155000", "185117.155000", "185118.155000", "185119.155000", "185120.155000", "185121.155000", "185122.155000", "185123.155000", "185124.155000", "185125.155000", "185126.155000", "185127.155000", "185128.155000", "185129.155000", "185130.155000", "185131.155000", "185132.155000", "185133.155000", "185134.155000", "185135.155000", "185136.155000", "185137.155000", "185138.155000", "185139.155000", "185140.155000", "185141.155000", "185142.155000", "185143.155000", "185144.155000", "185145.155000", "185146.155000", "185147.155000", "185148.155000", "185149.155000", "185150.155000", "185151.155000", "185152.155000", "185153.155000", "185154.155000", "185155.155000", "185156.155000", "185157.155000", "185158.155000", "185159.155000", "185200.155000", "185201.155000", "185202.155000", "185203.155000", "185204.155000", "185205.155000", "185206.155000", "185207.155000", "185208.155000", "185209.155000", "185210.155000", "185211.155000", "185212.155000", "185213.155000", "185214.155000", "185215.155000", "185216.155000", "185217.155000", "185218.155000", "185219.155000", "185220.155000", "185221.155000", "185222.155000", "185223.155000", "185224.155000", "185225.155000", "185226.155000", "185227.155000", "185228.155000", "185229.155000", "185230.155000", "185231.155000", "185232.155000", "185233.155000", "185234.155000", "185235.155000", "185236.155000", "185237.155000", "185238.155000", "185239.155000", "185240.155000", "185241.155000", "185242.155000", "185243.155000", "185244.155000", "185245.155000", "185246.155000", "185247.155000", "185248.155000", "185249.155000", "185250.155000", "185251.155000", "185252.155000", "185253.155000", "185254.155000", "185255.155000", "185256.155000", "185257.155000", "185258.155000", "185259.155000", "185300.155000", "185301.155000", "185302.155000", "185303.155000", "185304.155000", "185305.155000", "185306.155000", "185307.155000", "185308.155000", "185309.155000", "185310.155000", "185311.155000", "185312.155000", "185313.155000", "185314.155000", "185315.155000", "185316.155000", "185317.155000", "185318.155000", "185319.155000", "185320.155000", "185321.155000", "185322.155000", "185323.155000", "185324.155000", "185325.155000", "185326.155000", "185327.155000", "185328.155000", "185329.155000", "185330.155000", "185331.155000", "185332.155000", "185333.155000", "185334.155000", "185335.155000", "185336.155000", "185337.155000", "185338.155000", "185339.155000", "185340.155000", "185341.155000", "185342.155000", "185343.155000", "185344.155000", "185345.155000", "185346.155000", "185347.155000", "185348.155000", "185349.155000", "185350.155000", "185351.155000", "185352.155000", "185353.155000", "185354.155000", "185355.155000", "185356.155000", "185357.155000", "185358.155000", "185359.155000", "185400.155000", "185401.155000", "185402.155000", "185403.155000", "185404.155000", "185405.155000", "185406.155000", "185407.155000", "185408.155000", "185409.155000", "185410.155000", "185411.155000", "185412.155000", "185413.155000", "185414.155000", "185415.155000", "185416.155000", "185417.155000", "185418.155000", "185419.155000", "185420.155000", "185421.155000", "185422.155000", "185423.155000", "185424.155000", "185425.155000", "185426.155000", "185427.155000", "185428.155000", "185429.155000", "185430.155000", "185431.155000", "185432.155000", "185433.155000", "185434.155000", "185435.155000", "185436.155000", "185437.155000", "185438.155000", "185439.155000", "185440.155000", "185441.155000", "185442.155000", "185443.155000", "185444.155000", "185445.155000", "185446.155000", "185447.155000", "185448.155000", "185449.155000", "185450.155000", "185451.155000", "185452.155000", "185453.155000", "185454.155000", "185455.155000", "185456.155000", "185457.155000", "185458.155000", "185459.155000", "185500.155000", "185501.155000", "185502.155000", "185503.155000", "185504.155000", "185505.155000", "185506.155000", "185507.155000", "185508.155000", "185509.155000", "185510.155000", "185511.155000", "185512.155000", "185513.155000", "185514.155000", "185515.155000", "185516.155000", "185517.155000", "185518.155000", "185519.155000", "185520.155000", "185521.155000", "185522.155000", "185523.155000", "185524.155000", "185525.155000", "185526.155000", "185527.155000", "185528.155000", "185529.155000", "185530.155000", "185531.155000", "185532.155000", "185533.155000", "185534.155000", "185535.155000", "185536.155000", "185537.155000", "185538.155000", "185539.155000", "185540.155000", "185541.155000", "185542.155000", "185543.155000", "185544.155000", "185545.155000", "185546.155000", "185547.155000", "185548.155000", "185549.155000", "185550.155000", "185551.155000", "185552.155000", "185553.155000", "185554.155000", "185555.155000", "185556.155000", "185557.155000", "185558.155000", "185559.155000", "185600.155000", "185601.155000", "185602.155000", "185603.155000", "185604.155000", "185605.155000", "185606.155000", "185607.155000", "185608.155000", "185609.155000", "185610.155000", "185611.155000", "185612.155000", "185613.155000", "185614.155000", "185615.155000", "185616.155000", "185617.155000", "185618.155000", "185619.155000", "185620.155000", "185621.155000", "185622.155000", "185623.155000", "185624.155000", "185625.155000", "185626.155000", "185627.155000", "185628.155000", "185629.155000", "185630.155000", "185631.155000", "185632.155000", "185633.155000", "185634.155000", "185635.155000", "185636.155000", "185637.155000", "185638.155000", "185639.155000", "185640.155000", "185641.155000", "185642.155000", "185643.155000", "185644.155000", "185645.155000", "185646.155000", "185647.155000", "185648.155000", "185649.155000", "185650.155000", "185651.155000", "185652.155000", "185653.155000", "185654.155000", "185655.155000", "185656.155000", "185657.155000", "185658.155000", "185659.155000", "185700.155000", "185701.155000", "185702.155000", "185703.155000", "185704.155000", "185705.155000", "185706.155000", "185707.155000", "185708.155000", "185709.155000", "185710.155000", "185711.155000", "185712.155000", "185713.155000", "185714.155000", "185715.155000", "185716.155000", "185717.155000", "185718.155000", "185719.155000", "185720.155000", "185721.155000", "185722.155000", "185723.155000", "185724.155000", "185725.155000", "185726.155000", "185727.155000", "185728.155000", "185729.155000", "185730.155000", "185731.155000", "185732.155000", "185733.155000", "185734.155000", "185735.155000", "185736.155000", "185737.155000", "185738.155000", "185739.155000", "185740.155000", "185741.155000", "185742.155000", "185743.155000", "185744.155000", "185745.155000", "185746.155000", "185747.155000", "185748.155000", "185749.155000", "185750.155000", "185751.155000", "185752.155000", "185753.155000", "185754.155000", "185755.155000", "185756.155000", "185757.155000", "185758.155000", "185759.155000", "185800.155000", "185801.155000", "185802.155000", "185803.155000", "185804.155000", "185805.155000", "185806.155000", "185807.155000", "185808.155000", "185809.155000", "185810.155000", "185811.155000", "185812.155000", "185813.155000", "185814.155000", "185815.155000", "185816.155000", "185817.155000", "185818.155000", "185819.155000", "185820.155000", "185821.155000", "185822.155000", "185823.155000"],
      "ContentTime": ["184807.996000", "184808.784000", "184809.775000", "184810.768000", "184811.781000", "184812.765000", "184813.799000", "184814.761000", "184815.785000", "184816.798000", "184817.779000", "184818.763000", "184819.776000", "184820.768000", "184821.821000", "184822.753000", "184823.767000", "184824.805000", "184825.787000", "184826.845000", "184827.755000", "184828.778000", "184829.744000", "184830.772000", "184831.759000", "184832.776000", "184833.772000", "184834.761000", "184835.782000", "184836.781000", "184837.797000", "184838.775000", "184839.780000", "184840.781000", "184841.746000", "184842.804000", "184843.788000", "184844.753000", "184845.828000", "184846.789000", "184847.758000", "184848.772000", "184849.766000", "184850.788000", "184851.786000", "184852.772000", "184853.801000", "184854.774000", "184855.807000", "184856.811000", "184857.765000", "184858.780000", "184859.773000", "184900.779000", "184901.819000", "184902.771000", "184903.772000", "184904.813000", "184905.773000", "184906.778000", "184907.803000", "184908.776000", "184909.782000", "184910.780000", "184911.795000", "184912.774000", "184913.765000", "184914.807000", "184915.747000", "184916.734000", "184917.765000", "184918.771000", "184919.883000", "184920.812000", "184921.755000", "184922.768000", "184923.795000", "184924.760000", "184925.781000", "184926.772000", "184927.764000", "184928.767000", "184929.762000", "184930.790000", "184931.765000", "184932.762000", "184933.796000", "184934.805000", "184935.807000", "184936.785000", "184937.760000", "184938.793000", "184939.767000", "184940.780000", "184941.813000", "184942.782000", "184943.774000", "184944.759000", "184945.774000", "184946.791000", "184947.755000", "184948.767000", "184949.775000", "184950.768000", "184951.763000", "184952.795000", "184953.767000", "184954.779000", "184955.781000", "184956.786000", "184957.770000", "184958.762000", "184959.779000", "185000.776000", "185001.775000", "185002.751000", "185003.818000", "185004.755000", "185005.758000", "185006.770000", "185007.759000", "185008.771000", "185009.779000", "185010.778000", "185011.777000", "185012.769000", "185013.804000", "185014.798000", "185015.768000", "185016.755000", "185017.794000", "185018.781000", "185019.790000", "185020.772000", "185021.780000", "185022.779000", "185023.800000", "185024.784000", "185025.786000", "185026.778000", "185027.782000", "185028.808000", "185029.778000", "185030.755000", "185031.771000", "185032.761000", "185033.785000", "185034.780000", "185035.794000", "185036.750000", "185037.769000", "185038.755000", "185039.800000", "185040.767000", "185041.782000", "185042.761000", "185043.759000", "185044.770000", "185045.786000", "185046.765000", "185047.793000", "185048.805000", "185049.778000", "185050.796000", "185051.818000", "185052.810000", "185053.775000", "185054.761000", "185055.761000", "185056.776000", "185057.771000", "185058.815000", "185059.798000", "185100.744000", "185101.770000", "185102.765000", "185103.789000", "185104.769000", "185105.778000", "185106.773000", "185107.755000", "185108.799000", "185109.780000", "185110.779000", "185111.764000", "185112.771000", "185113.770000", "185114.774000", "185115.755000", "185116.740000", "185117.781000", "185118.803000", "185119.764000", "185120.767000", "185121.780000", "185122.762000", "185123.750000", "185124.779000", "185125.791000", "185126.775000", "185127.779000", "185128.777000", "185129.764000", "185130.756000", "185131.766000", "185132.756000", "185133.765000", "185134.794000", "185135.765000", "185136.774000", "185137.831000", "185138.759000", "185139.768000", "185140.732000", "185141.770000", "185142.780000", "185143.771000", "185144.794000", "185145.802000", "185146.800000", "185147.782000", "185148.798000", "185149.782000", "185150.774000", "185151.786000", "185152.776000", "185153.771000", "185154.779000", "185155.774000", "185156.778000", "185157.763000", "185158.769000", "185159.774000", "185200.777000", "185201.773000", "185202.770000", "185203.778000", "185204.775000", "185205.782000", "185206.787000", "185207.757000", "185208.767000", "185209.774000", "185210.812000", "185211.764000", "185212.765000", "185213.785000", "185214.774000", "185215.766000", "185216.758000", "185217.768000", "185218.784000", "185219.825000", "185220.752000", "185221.812000", "185222.761000", "185223.769000", "185224.807000", "185225.772000", "185226.772000", "185227.747000", "185228.776000", "185229.778000", "185230.798000", "185231.808000", "185232.773000", "185233.829000", "185234.778000", "185235.770000", "185236.828000", "185237.844000", "185238.777000", "185239.806000", "185240.819000", "185241.778000", "185242.784000", "185243.776000", "185244.790000", "185245.787000", "185246.767000", "185247.796000", "185248.774000", "185249.845000", "185250.827000", "185251.789000", "185252.771000", "185253.763000", "185254.764000", "185255.774000", "185256.770000", "185257.770000", "185258.751000", "185259.740000", "185300.856000", "185301.795000", "185302.795000", "185303.813000", "185304.767000", "185305.772000", "185306.758000", "185307.769000", "185308.766000", "185309.752000", "185310.761000", "185311.772000", "185312.792000", "185313.774000", "185314.772000", "185315.760000", "185316.764000", "185317.772000", "185318.765000", "185319.771000", "185320.755000", "185321.752000", "185322.767000", "185323.754000", "185324.759000", "185325.743000", "185326.734000", "185327.766000", "185328.819000", "185329.780000", "185330.786000", "185331.767000", "185332.752000", "185333.758000", "185334.790000", "185335.815000", "185336.767000", "185337.773000", "185338.784000", "185339.773000", "185340.781000", "185341.748000", "185342.782000", "185343.774000", "185344.779000", "185345.767000", "185346.767000", "185347.775000", "185348.772000", "185349.881000", "185350.777000", "185351.811000", "185352.807000", "185353.774000", "185354.798000", "185355.820000", "185356.789000", "185357.761000", "185358.782000", "185359.778000", "185400.756000", "185401.757000", "185402.783000", "185403.848000", "185404.765000", "185405.769000", "185406.790000", "185407.785000", "185408.781000", "185409.787000", "185410.779000", "185411.839000", "185412.761000", "185413.764000", "185414.772000", "185415.833000", "185416.779000", "185417.867000", "185418.792000", "185419.787000", "185420.778000", "185421.788000", "185422.762000", "185423.808000", "185424.787000", "185425.762000", "185426.775000", "185427.778000", "185428.780000", "185429.771000", "185430.760000", "185431.748000", "185432.805000", "185433.801000", "185434.774000", "185435.770000", "185436.776000", "185437.778000", "185438.764000", "185439.767000", "185440.762000", "185441.822000", "185442.778000", "185443.769000", "185444.760000", "185445.772000", "185446.787000", "185447.735000", "185448.747000", "185449.793000", "185450.768000", "185451.772000", "185452.801000", "185453.766000", "185454.781000", "185455.774000", "185456.784000", "185457.766000", "185458.740000", "185459.769000", "185500.776000", "185501.786000", "185502.782000", "185503.794000", "185504.762000", "185505.836000", "185506.746000", "185507.764000", "185508.772000", "185509.771000", "185510.735000", "185511.764000", "185512.773000", "185513.774000", "185514.792000", "185515.769000", "185516.746000", "185517.758000", "185518.771000", "185519.770000", "185520.770000", "185521.751000", "185522.796000", "185523.784000", "185524.776000", "185525.773000", "185526.768000", "185527.819000", "185528.737000", "185529.770000", "185530.778000", "185531.763000", "185532.773000", "185533.799000", "185534.784000", "185535.775000", "185536.784000", "185537.770000", "185538.770000", "185539.781000", "185540.818000", "185541.750000", "185542.758000", "185543.750000", "185544.781000", "185545.764000", "185546.765000", "185547.772000", "185548.776000", "185549.756000", "185550.781000", "185551.792000", "185552.781000", "185553.750000", "185554.768000", "185555.786000", "185556.777000", "185557.833000", "185558.774000", "185559.769000", "185600.793000", "185601.754000", "185602.737000", "185603.776000", "185604.769000", "185605.745000", "185606.763000", "185607.782000", "185608.803000", "185609.787000", "185610.780000", "185611.755000", "185612.770000", "185613.788000", "185614.804000", "185615.826000", "185616.782000", "185617.829000", "185618.816000", "185619.833000", "185620.756000", "185621.751000", "185622.769000", "185623.783000", "185624.821000", "185625.778000", "185626.793000", "185627.757000", "185628.776000", "185629.774000", "185630.776000", "185631.776000", "185632.774000", "185633.763000", "185634.762000", "185635.830000", "185636.759000", "185637.781000", "185638.762000", "185639.816000", "185640.757000", "185641.773000", "185642.750000", "185643.776000", "185644.770000", "185645.774000", "185646.824000", "185647.760000", "185648.755000", "185649.777000", "185650.781000", "185651.754000", "185652.771000", "185653.770000", "185654.779000", "185655.769000", "185656.802000", "185657.781000", "185658.805000", "185659.771000", "185700.776000", "185701.759000", "185702.774000", "185703.781000", "185704.766000", "185705.779000", "185706.762000", "185707.780000", "185708.761000", "185709.773000", "185710.759000", "185711.780000", "185712.763000", "185713.757000", "185714.787000", "185715.878000", "185716.784000", "185717.776000", "185718.748000", "185719.768000", "185720.765000", "185721.873000", "185722.747000", "185723.761000", "185724.774000", "185725.759000", "185726.804000", "185727.837000", "185728.761000", "185729.787000", "185730.765000", "185731.759000", "185732.755000", "185733.774000", "185734.783000", "185735.756000", "185736.782000", "185737.786000", "185738.784000", "185739.804000", "185740.766000", "185741.759000", "185742.771000", "185743.768000", "185744.776000", "185745.719000", "185746.755000", "185747.764000", "185748.782000", "185749.769000", "185750.777000", "185751.757000", "185752.775000", "185753.762000", "185754.774000", "185755.759000", "185756.777000", "185757.770000", "185758.764000", "185759.774000", "185800.760000", "185801.826000", "185802.766000", "185803.795000", "185804.764000", "185805.876000", "185806.764000", "185807.768000", "185808.796000", "185809.797000", "185810.782000", "185811.771000", "185812.754000", "185813.767000", "185814.784000", "185815.758000", "185816.777000", "185817.811000", "185818.779000", "185819.761000", "185820.779000", "185821.786000", "185822.769000", "185823.764000", "185824.800000"],
