{
  "AcquisitionMatrixPE": 96,
  "AcquisitionNumber": 1,
  "AcquisitionTime": "18:58:57.740000",
  "BandwidthPerPixelPhaseEncode": 18.939,
  "BaseResolution": 96,
  "BodyPartExamined": "BRAIN",
  "ConsistencyInfo": "N4_VE11C_LATEST_20160120",
  "ConversionSoftware": "dcm2niix",
  "ConversionSoftwareVersion": "v1.0.20190902",
  "DerivedVendorReportedEchoSpacing": 0.000550011,
  "DeviceSerialNumber": "66112",
  "DwellTime": 2.2e-06,
  "EchoTime": 0.033,
  "EchoTrainLength": 96,
  "EffectiveEchoSpacing": 0.000550011,
  "FlipAngle": 59,
  "ImageOrientationPatientDICOM": [0.999399, 0.0245638, 0.024467, -0.027043, 0.993916, 0.106772],
  "ImageType": [
    "ORIGINAL",
    "PRIMARY",
    "FMRI",
    "NONE",
    "ND",
    "NORM",
    "MOSAIC"
],
  "ImagingFrequency": 123.252,
  "InPlanePhaseEncodingDirectionDICOM": "COL",
  "InstitutionAddress": "Maynard_3_Hanover_NH_US_03755",
  "InstitutionName": "Dartmouth_College_-_PBS",
  "InstitutionalDepartmentName": "Department",
  "MRAcquisitionType": "2D",
  "MagneticFieldStrength": 3,
  "Manufacturer": "Siemens",
  "ManufacturersModelName": "Prisma",
  "Modality": "MR",
  "MultibandAccelerationFactor": 4,
  "PartialFourier": 1,
  "PatientPosition": "HFS",
  "PercentPhaseFOV": 100,
  "PhaseEncodingDirection": "j-",
  "PhaseEncodingSteps": 96,
  "PhaseResolution": 1,
  "PixelBandwidth": 2365,
  "ProcedureStepDescription": "Gobbini_Matteo_1037_budapest",
  "ProtocolName": "func_run-05_task-movie",
  "PulseSequenceDetails": "%SiemensSeq%_ep2d_bold",
  "ReceiveCoilActiveElements": "HEA;HEP",
  "ReceiveCoilName": "Head_32",
  "ReconMatrixPE": 96,
  "RefLinesPE": 12,
  "RepetitionTime": 1,
  "SAR": 0.0545501,
  "ScanOptions": "FS",
  "ScanningSequence": "EP",
  "SequenceName": "_epfid2d1_96",
  "SequenceVariant": "SK",
  "SeriesDescription": "func_run-05_task-movie",
  "SeriesNumber": 36,
  "ShimSetting": [4134, -7750, -7292, 548, -120, -118, 12, 93],
  "SliceThickness": 2.5,
  "SliceTiming": [0.735, 0, 0.49, 0.0825, 0.5725, 0.165, 0.655, 0.3275, 0.8175, 0.41, 0.9, 0.245, 0.735, 0, 0.49, 0.0825, 0.5725, 0.165, 0.655, 0.3275, 0.8175, 0.41, 0.9, 0.245, 0.735, 0, 0.49, 0.0825, 0.5725, 0.165, 0.655, 0.3275, 0.8175, 0.41, 0.9, 0.245, 0.735, 0, 0.49, 0.0825, 0.5725, 0.165, 0.655, 0.3275, 0.8175, 0.41, 0.9, 0.245],
  "SoftwareVersions": "syngo_MR_E11",
  "SpacingBetweenSlices": 2.5,
  "StationName": "AWP66112",
  "TaskName": "movie",
  "TotalReadoutTime": 0.0522511,
  "TxRefAmp": 240.324,
  "dcmmeta_affine": [
    [-2.4984970092773438, -0.06760742515325546, 0.054238494485616684, 125.6183853149414],
    [-0.06140945851802826, 2.4847893714904785, 0.2684229612350464, -99.47798156738281],
    [0.06116744503378868, -0.2669292986392975, 2.4849562644958496, -59.72005844116211],
    [0.0, 0.0, 0.0, 1.0]
],
  "dcmmeta_reorient_transform": [
    [0.0, -1.0, 0.0, 95.0],
    [1.0, 0.0, 0.0, 0.0],
    [0.0, 0.0, 1.0, 0.0],
    [0.0, 0.0, 0.0, 1.0]
],
  "dcmmeta_shape": [96, 96, 48, 803],
  "dcmmeta_slice_dim": 2,
  "dcmmeta_version": 0.6,
  "global": {
    "const": {
      "AccessionNumber": "A001586",
      "AcquisitionMatrix": [96, 0, 0, 96],
      "AngioFlag": "N",
      "BitsAllocated": 16,
      "BitsStored": 12,
      "BodyPartExamined": "BRAIN",
      "Columns": 672,
      "EchoNumbers": 1,
      "EchoTime": 33.0,
      "EchoTrainLength": 96,
      "FlipAngle": 59.0,
      "HighBit": 11,
      "ImageOrientationPatient": [0.99939881303735, 0.02456378358673, 0.02446697846982, -0.0270429701125, 0.99391572975592, 0.10677171868642],
      "ImagePositionPatient": [-819.29188518012, -869.88225585321, -179.57020226651],
      "ImageType": [
        "ORIGINAL",
        "PRIMARY",
        "FMRI",
        "NONE",
        "ND",
        "NORM",
        "MOSAIC"
],
      "ImagedNucleus": "1H",
      "ImagingFrequency": 123.252323,
      "InPlanePhaseEncodingDirection": "COL",
      "MRAcquisitionType": "2D",
      "MagneticFieldStrength": 3.0,
      "Manufacturer": "SIEMENS",
      "ManufacturerModelName": "Prisma",
      "Modality": "MR",
      "NumberOfAverages": 1.0,
      "NumberOfPhaseEncodingSteps": 96,
      "PercentPhaseFieldOfView": 100.0,
      "PercentSampling": 100.0,
      "PerformedProcedureStepStartTime": "175735.320000",
      "PhotometricInterpretation": "MONOCHROME2",
      "PixelBandwidth": 2365.0,
      "PixelRepresentation": 0,
      "PixelSpacing": [2.5, 2.5],
      "ProtocolName": "func_run-05_task-movie",
      "RepetitionTime": 1000.0,
      "Rows": 672,
      "SAR": 0.05455007378434,
      "SamplesPerPixel": 1,
      "ScanOptions": "FS",
      "ScanningSequence": "EP",
      "SequenceName": "*epfid2d1_96",
      "SequenceVariant": "SK",
      "SeriesDescription": "func_run-05_task-movie",
      "SeriesNumber": 36,
      "SeriesTime": "185859.341000",
      "SliceLocation": -67.316219590968,
      "SliceThickness": 2.5,
      "SmallestImagePixelValue": 0,
      "SoftwareVersions": "syngo MR E11",
      "SpacingBetweenSlices": 2.5000000168408,
      "SpecificCharacterSet": "ISO_IR 100",
      "StudyID": "1",
      "StudyTime": "175735.259000",
      "TransmitCoilName": "Body",
      "VariableFlipAngleFlag": "N",
      "WindowCenterWidthExplanation": "Algo1",
      "dBdt": 0.0},
    "slices": {}
  },
  "time": {
    "samples": {
      "AcquisitionNumber": [1, 2, 3, 4, 5, 6, 7, 8, 9, 10, 11, 12, 13, 14, 15, 16, 17, 18, 19, 20, 21, 22, 23, 24, 25, 26, 27, 28, 29, 30, 31, 32, 33, 34, 35, 36, 37, 38, 39, 40, 41, 42, 43, 44, 45, 46, 47, 48, 49, 50, 51, 52, 53, 54, 55, 56, 57, 58, 59, 60, 61, 62, 63, 64, 65, 66, 67, 68, 69, 70, 71, 72, 73, 74, 75, 76, 77, 78, 79, 80, 81, 82, 83, 84, 85, 86, 87, 88, 89, 90, 91, 92, 93, 94, 95, 96, 97, 98, 99, 100, 101, 102, 103, 104, 105, 106, 107, 108, 109, 110, 111, 112, 113, 114, 115, 116, 117, 118, 119, 120, 121, 122, 123, 124, 125, 126, 127, 128, 129, 130, 131, 132, 133, 134, 135, 136, 137, 138, 139, 140, 141, 142, 143, 144, 145, 146, 147, 148, 149, 150, 151, 152, 153, 154, 155, 156, 157, 158, 159, 160, 161, 162, 163, 164, 165, 166, 167, 168, 169, 170, 171, 172, 173, 174, 175, 176, 177, 178, 179, 180, 181, 182, 183, 184, 185, 186, 187, 188, 189, 190, 191, 192, 193, 194, 195, 196, 197, 198, 199, 200, 201, 202, 203, 204, 205, 206, 207, 208, 209, 210, 211, 212, 213, 214, 215, 216, 217, 218, 219, 220, 221, 222, 223, 224, 225, 226, 227, 228, 229, 230, 231, 232, 233, 234, 235, 236, 237, 238, 239, 240, 241, 242, 243, 244, 245, 246, 247, 248, 249, 250, 251, 252, 253, 254, 255, 256, 257, 258, 259, 260, 261, 262, 263, 264, 265, 266, 267, 268, 269, 270, 271, 272, 273, 274, 275, 276, 277, 278, 279, 280, 281, 282, 283, 284, 285, 286, 287, 288, 289, 290, 291, 292, 293, 294, 295, 296, 297, 298, 299, 300, 301, 302, 303, 304, 305, 306, 307, 308, 309, 310, 311, 312, 313, 314, 315, 316, 317, 318, 319, 320, 321, 322, 323, 324, 325, 326, 327, 328, 329, 330, 331, 332, 333, 334, 335, 336, 337, 338, 339, 340, 341, 342, 343, 344, 345, 346, 347, 348, 349, 350, 351, 352, 353, 354, 355, 356, 357, 358, 359, 360, 361, 362, 363, 364, 365, 366, 367, 368, 369, 370, 371, 372, 373, 374, 375, 376, 377, 378, 379, 380, 381, 382, 383, 384, 385, 386, 387, 388, 389, 390, 391, 392, 393, 394, 395, 396, 397, 398, 399, 400, 401, 402, 403, 404, 405, 406, 407, 408, 409, 410, 411, 412, 413, 414, 415, 416, 417, 418, 419, 420, 421, 422, 423, 424, 425, 426, 427, 428, 429, 430, 431, 432, 433, 434, 435, 436, 437, 438, 439, 440, 441, 442, 443, 444, 445, 446, 447, 448, 449, 450, 451, 452, 453, 454, 455, 456, 457, 458, 459, 460, 461, 462, 463, 464, 465, 466, 467, 468, 469, 470, 471, 472, 473, 474, 475, 476, 477, 478, 479, 480, 481, 482, 483, 484, 485, 486, 487, 488, 489, 490, 491, 492, 493, 494, 495, 496, 497, 498, 499, 500, 501, 502, 503, 504, 505, 506, 507, 508, 509, 510, 511, 512, 513, 514, 515, 516, 517, 518, 519, 520, 521, 522, 523, 524, 525, 526, 527, 528, 529, 530, 531, 532, 533, 534, 535, 536, 537, 538, 539, 540, 541, 542, 543, 544, 545, 546, 547, 548, 549, 550, 551, 552, 553, 554, 555, 556, 557, 558, 559, 560, 561, 562, 563, 564, 565, 566, 567, 568, 569, 570, 571, 572, 573, 574, 575, 576, 577, 578, 579, 580, 581, 582, 583, 584, 585, 586, 587, 588, 589, 590, 591, 592, 593, 594, 595, 596, 597, 598, 599, 600, 601, 602, 603, 604, 605, 606, 607, 608, 609, 610, 611, 612, 613, 614, 615, 616, 617, 618, 619, 620, 621, 622, 623, 624, 625, 626, 627, 628, 629, 630, 631, 632, 633, 634, 635, 636, 637, 638, 639, 640, 641, 642, 643, 644, 645, 646, 647, 648, 649, 650, 651, 652, 653, 654, 655, 656, 657, 658, 659, 660, 661, 662, 663, 664, 665, 666, 667, 668, 669, 670, 671, 672, 673, 674, 675, 676, 677, 678, 679, 680, 681, 682, 683, 684, 685, 686, 687, 688, 689, 690, 691, 692, 693, 694, 695, 696, 697, 698, 699, 700, 701, 702, 703, 704, 705, 706, 707, 708, 709, 710, 711, 712, 713, 714, 715, 716, 717, 718, 719, 720, 721, 722, 723, 724, 725, 726, 727, 728, 729, 730, 731, 732, 733, 734, 735, 736, 737, 738, 739, 740, 741, 742, 743, 744, 745, 746, 747, 748, 749, 750, 751, 752, 753, 754, 755, 756, 757, 758, 759, 760, 761, 762, 763, 764, 765, 766, 767, 768, 769, 770, 771, 772, 773, 774, 775, 776, 777, 778, 779, 780, 781, 782, 783, 784, 785, 786, 787, 788, 789, 790, 791, 792, 793, 794, 795, 796, 797, 798, 799, 800, 801, 802, 803],
      "AcquisitionTime": ["185857.740000", "185858.740000", "185859.740000", "185900.740000", "185901.740000", "185902.740000", "185903.740000", "185904.740000", "185905.740000", "185906.740000", "185907.740000", "185908.740000", "185909.740000", "185910.740000", "185911.740000", "185912.740000", "185913.740000", "185914.740000", "185915.740000", "185916.740000", "185917.740000", "185918.740000", "185919.740000", "185920.740000", "185921.740000", "185922.740000", "185923.740000", "185924.740000", "185925.740000", "185926.740000", "185927.740000", "185928.740000", "185929.740000", "185930.740000", "185931.740000", "185932.740000", "185933.740000", "185934.740000", "185935.740000", "185936.740000", "185937.740000", "185938.740000", "185939.740000", "185940.740000", "185941.740000", "185942.740000", "185943.740000", "185944.740000", "185945.740000", "185946.740000", "185947.740000", "185948.740000", "185949.740000", "185950.740000", "185951.740000", "185952.740000", "185953.740000", "185954.740000", "185955.740000", "185956.740000", "185957.740000", "185958.740000", "185959.740000", "190000.740000", "190001.740000", "190002.740000", "190003.740000", "190004.740000", "190005.740000", "190006.740000", "190007.740000", "190008.740000", "190009.740000", "190010.740000", "190011.740000", "190012.740000", "190013.740000", "190014.740000", "190015.740000", "190016.740000", "190017.740000", "190018.740000", "190019.740000", "190020.740000", "190021.740000", "190022.740000", "190023.740000", "190024.740000", "190025.740000", "190026.740000", "190027.740000", "190028.740000", "190029.740000", "190030.740000", "190031.740000", "190032.740000", "190033.740000", "190034.740000", "190035.740000", "190036.740000", "190037.740000", "190038.740000", "190039.740000", "190040.740000", "190041.740000", "190042.740000", "190043.740000", "190044.740000", "190045.740000", "190046.740000", "190047.740000", "190048.740000", "190049.740000", "190050.740000", "190051.740000", "190052.740000", "190053.740000", "190054.740000", "190055.740000", "190056.740000", "190057.740000", "190058.740000", "190059.740000", "190100.740000", "190101.740000", "190102.740000", "190103.740000", "190104.740000", "190105.740000", "190106.740000", "190107.740000", "190108.740000", "190109.740000", "190110.740000", "190111.740000", "190112.740000", "190113.740000", "190114.740000", "190115.740000", "190116.740000", "190117.740000", "190118.740000", "190119.740000", "190120.740000", "190121.740000", "190122.740000", "190123.740000", "190124.740000", "190125.740000", "190126.740000", "190127.740000", "190128.740000", "190129.740000", "190130.740000", "190131.740000", "190132.740000", "190133.740000", "190134.740000", "190135.740000", "190136.740000", "190137.740000", "190138.740000", "190139.740000", "190140.740000", "190141.740000", "190142.740000", "190143.740000", "190144.740000", "190145.740000", "190146.740000", "190147.740000", "190148.740000", "190149.740000", "190150.740000", "190151.740000", "190152.740000", "190153.740000", "190154.740000", "190155.740000", "190156.740000", "190157.740000", "190158.740000", "190159.740000", "190200.740000", "190201.740000", "190202.740000", "190203.740000", "190204.740000", "190205.740000", "190206.740000", "190207.740000", "190208.740000", "190209.740000", "190210.740000", "190211.740000", "190212.740000", "190213.740000", "190214.740000", "190215.740000", "190216.740000", "190217.740000", "190218.740000", "190219.740000", "190220.740000", "190221.740000", "190222.740000", "190223.740000", "190224.740000", "190225.740000", "190226.740000", "190227.740000", "190228.740000", "190229.740000", "190230.740000", "190231.740000", "190232.740000", "190233.740000", "190234.740000", "190235.740000", "190236.740000", "190237.740000", "190238.740000", "190239.740000", "190240.740000", "190241.740000", "190242.740000", "190243.740000", "190244.740000", "190245.740000", "190246.740000", "190247.740000", "190248.740000", "190249.740000", "190250.740000", "190251.740000", "190252.740000", "190253.740000", "190254.740000", "190255.740000", "190256.740000", "190257.740000", "190258.740000", "190259.740000", "190300.740000", "190301.740000", "190302.740000", "190303.740000", "190304.740000", "190305.740000", "190306.740000", "190307.740000", "190308.740000", "190309.740000", "190310.740000", "190311.740000", "190312.740000", "190313.740000", "190314.740000", "190315.740000", "190316.740000", "190317.740000", "190318.740000", "190319.740000", "190320.740000", "190321.740000", "190322.740000", "190323.740000", "190324.740000", "190325.740000", "190326.740000", "190327.740000", "190328.740000", "190329.740000", "190330.740000", "190331.740000", "190332.740000", "190333.740000", "190334.740000", "190335.740000", "190336.740000", "190337.740000", "190338.740000", "190339.740000", "190340.740000", "190341.740000", "190342.740000", "190343.740000", "190344.740000", "190345.740000", "190346.740000", "190347.740000", "190348.740000", "190349.740000", "190350.740000", "190351.740000", "190352.740000", "190353.740000", "190354.740000", "190355.740000", "190356.740000", "190357.740000", "190358.740000", "190359.740000", "190400.740000", "190401.740000", "190402.740000", "190403.740000", "190404.740000", "190405.740000", "190406.740000", "190407.740000", "190408.740000", "190409.740000", "190410.740000", "190411.740000", "190412.740000", "190413.740000", "190414.740000", "190415.740000", "190416.740000", "190417.740000", "190418.740000", "190419.740000", "190420.740000", "190421.740000", "190422.740000", "190423.740000", "190424.740000", "190425.740000", "190426.740000", "190427.740000", "190428.740000", "190429.740000", "190430.740000", "190431.740000", "190432.740000", "190433.740000", "190434.740000", "190435.740000", "190436.740000", "190437.740000", "190438.740000", "190439.740000", "190440.740000", "190441.740000", "190442.740000", "190443.740000", "190444.740000", "190445.740000", "190446.740000", "190447.740000", "190448.740000", "190449.740000", "190450.740000", "190451.740000", "190452.740000", "190453.740000", "190454.740000", "190455.740000", "190456.740000", "190457.740000", "190458.740000", "190459.740000", "190500.740000", "190501.740000", "190502.740000", "190503.740000", "190504.740000", "190505.740000", "190506.740000", "190507.740000", "190508.740000", "190509.740000", "190510.740000", "190511.740000", "190512.740000", "190513.740000", "190514.740000", "190515.740000", "190516.740000", "190517.740000", "190518.740000", "190519.740000", "190520.740000", "190521.740000", "190522.740000", "190523.740000", "190524.740000", "190525.740000", "190526.740000", "190527.740000", "190528.740000", "190529.740000", "190530.740000", "190531.740000", "190532.740000", "190533.740000", "190534.740000", "190535.740000", "190536.740000", "190537.740000", "190538.740000", "190539.740000", "190540.740000", "190541.740000", "190542.740000", "190543.740000", "190544.740000", "190545.740000", "190546.740000", "190547.740000", "190548.740000", "190549.740000", "190550.740000", "190551.740000", "190552.740000", "190553.740000", "190554.740000", "190555.740000", "190556.740000", "190557.740000", "190558.740000", "190559.740000", "190600.740000", "190601.740000", "190602.740000", "190603.740000", "190604.740000", "190605.740000", "190606.740000", "190607.740000", "190608.740000", "190609.740000", "190610.740000", "190611.740000", "190612.740000", "190613.740000", "190614.740000", "190615.740000", "190616.740000", "190617.740000", "190618.740000", "190619.740000", "190620.740000", "190621.740000", "190622.740000", "190623.740000", "190624.740000", "190625.740000", "190626.740000", "190627.740000", "190628.740000", "190629.740000", "190630.740000", "190631.740000", "190632.740000", "190633.740000", "190634.740000", "190635.740000", "190636.740000", "190637.740000", "190638.740000", "190639.740000", "190640.740000", "190641.740000", "190642.740000", "190643.740000", "190644.740000", "190645.740000", "190646.740000", "190647.740000", "190648.740000", "190649.740000", "190650.740000", "190651.740000", "190652.740000", "190653.740000", "190654.740000", "190655.740000", "190656.740000", "190657.740000", "190658.740000", "190659.740000", "190700.740000", "190701.740000", "190702.740000", "190703.740000", "190704.740000", "190705.740000", "190706.740000", "190707.740000", "190708.740000", "190709.740000", "190710.740000", "190711.740000", "190712.740000", "190713.740000", "190714.740000", "190715.740000", "190716.740000", "190717.740000", "190718.740000", "190719.740000", "190720.740000", "190721.740000", "190722.740000", "190723.740000", "190724.740000", "190725.740000", "190726.740000", "190727.740000", "190728.740000", "190729.740000", "190730.740000", "190731.740000", "190732.740000", "190733.740000", "190734.740000", "190735.740000", "190736.740000", "190737.740000", "190738.740000", "190739.740000", "190740.740000", "190741.740000", "190742.740000", "190743.740000", "190744.740000", "190745.740000", "190746.740000", "190747.740000", "190748.740000", "190749.740000", "190750.740000", "190751.740000", "190752.740000", "190753.740000", "190754.740000", "190755.740000", "190756.740000", "190757.740000", "190758.740000", "190759.740000", "190800.740000", "190801.740000", "190802.740000", "190803.740000", "190804.740000", "190805.740000", "190806.740000", "190807.740000", "190808.740000", "190809.740000", "190810.740000", "190811.740000", "190812.740000", "190813.740000", "190814.740000", "190815.740000", "190816.740000", "190817.740000", "190818.740000", "190819.740000", "190820.740000", "190821.740000", "190822.740000", "190823.740000", "190824.740000", "190825.740000", "190826.740000", "190827.740000", "190828.740000", "190829.740000", "190830.740000", "190831.740000", "190832.740000", "190833.740000", "190834.740000", "190835.740000", "190836.740000", "190837.740000", "190838.740000", "190839.740000", "190840.740000", "190841.740000", "190842.740000", "190843.740000", "190844.740000", "190845.740000", "190846.740000", "190847.740000", "190848.740000", "190849.740000", "190850.740000", "190851.740000", "190852.740000", "190853.740000", "190854.740000", "190855.740000", "190856.740000", "190857.740000", "190858.740000", "190859.740000", "190900.740000", "190901.740000", "190902.740000", "190903.740000", "190904.740000", "190905.740000", "190906.740000", "190907.740000", "190908.740000", "190909.740000", "190910.740000", "190911.740000", "190912.740000", "190913.740000", "190914.740000", "190915.740000", "190916.740000", "190917.740000", "190918.740000", "190919.740000", "190920.740000", "190921.740000", "190922.740000", "190923.740000", "190924.740000", "190925.740000", "190926.740000", "190927.740000", "190928.740000", "190929.740000", "190930.740000", "190931.740000", "190932.740000", "190933.740000", "190934.740000", "190935.740000", "190936.740000", "190937.740000", "190938.740000", "190939.740000", "190940.740000", "190941.740000", "190942.740000", "190943.740000", "190944.740000", "190945.740000", "190946.740000", "190947.740000", "190948.740000", "190949.740000", "190950.740000", "190951.740000", "190952.740000", "190953.740000", "190954.740000", "190955.740000", "190956.740000", "190957.740000", "190958.740000", "190959.740000", "191000.740000", "191001.740000", "191002.740000", "191003.740000", "191004.740000", "191005.740000", "191006.740000", "191007.740000", "191008.740000", "191009.740000", "191010.740000", "191011.740000", "191012.740000", "191013.740000", "191014.740000", "191015.740000", "191016.740000", "191017.740000", "191018.740000", "191019.740000", "191020.740000", "191021.740000", "191022.740000", "191023.740000", "191024.740000", "191025.740000", "191026.740000", "191027.740000", "191028.740000", "191029.740000", "191030.740000", "191031.740000", "191032.740000", "191033.740000", "191034.740000", "191035.740000", "191036.740000", "191037.740000", "191038.740000", "191039.740000", "191040.740000", "191041.740000", "191042.740000", "191043.740000", "191044.740000", "191045.740000", "191046.740000", "191047.740000", "191048.740000", "191049.740000", "191050.740000", "191051.740000", "191052.740000", "191053.740000", "191054.740000", "191055.740000", "191056.740000", "191057.740000", "191058.740000", "191059.740000", "191100.740000", "191101.740000", "191102.740000", "191103.740000", "191104.740000", "191105.740000", "191106.740000", "191107.740000", "191108.740000", "191109.740000", "191110.740000", "191111.740000", "191112.740000", "191113.740000", "191114.740000", "191115.740000", "191116.740000", "191117.740000", "191118.740000", "191119.740000", "191120.740000", "191121.740000", "191122.740000", "191123.740000", "191124.740000", "191125.740000", "191126.740000", "191127.740000", "191128.740000", "191129.740000", "191130.740000", "191131.740000", "191132.740000", "191133.740000", "191134.740000", "191135.740000", "191136.740000", "191137.740000", "191138.740000", "191139.740000", "191140.740000", "191141.740000", "191142.740000", "191143.740000", "191144.740000", "191145.740000", "191146.740000", "191147.740000", "191148.740000", "191149.740000", "191150.740000", "191151.740000", "191152.740000", "191153.740000", "191154.740000", "191155.740000", "191156.740000", "191157.740000", "191158.740000", "191159.740000", "191200.740000", "191201.740000", "191202.740000", "191203.740000", "191204.740000", "191205.740000", "191206.740000", "191207.740000", "191208.740000", "191209.740000", "191210.740000", "191211.740000", "191212.740000", "191213.740000", "191214.740000", "191215.740000", "191216.740000", "191217.740000", "191218.740000", "191219.740000"],
