{
  "AcquisitionMatrixPE": 96,
  "AcquisitionNumber": 1,
  "AcquisitionTime": "19:05:14.790000",
  "BandwidthPerPixelPhaseEncode": 18.939,
  "BaseResolution": 96,
  "BodyPartExamined": "BRAIN",
  "ConsistencyInfo": "N4_VE11C_LATEST_20160120",
  "ConversionSoftware": "dcm2niix",
  "ConversionSoftwareVersion": "v1.0.20190902",
  "DerivedVendorReportedEchoSpacing": 0.000550011,
  "DeviceSerialNumber": "66112",
  "DwellTime": 2.2e-06,
  "EchoTime": 0.033,
  "EchoTrainLength": 96,
  "EffectiveEchoSpacing": 0.000550011,
  "FlipAngle": 59,
  "ImageOrientationPatientDICOM": [0.998642, -0.0150449, 0.0498744, 0.0139446, 0.999653, 0.0223367],
  "ImageType": [
    "ORIGINAL",
    "PRIMARY",
    "FMRI",
    "NONE",
    "ND",
    "NORM",
    "MOSAIC"
],
  "ImagingFrequency": 123.252,
  "InPlanePhaseEncodingDirectionDICOM": "COL",
  "InstitutionAddress": "Maynard_3_Hanover_NH_US_03755",
  "InstitutionName": "Dartmouth_College_-_PBS",
  "InstitutionalDepartmentName": "Department",
  "MRAcquisitionType": "2D",
  "MagneticFieldStrength": 3,
  "Manufacturer": "Siemens",
  "ManufacturersModelName": "Prisma",
  "Modality": "MR",
  "MultibandAccelerationFactor": 4,
  "PartialFourier": 1,
  "PatientPosition": "HFS",
  "PercentPhaseFOV": 100,
  "PhaseEncodingDirection": "j-",
  "PhaseEncodingSteps": 96,
  "PhaseResolution": 1,
  "PixelBandwidth": 2365,
  "ProcedureStepDescription": "Gobbini_Matteo_1037_budapest",
  "ProtocolName": "func_run-02_task-movie",
  "PulseSequenceDetails": "%SiemensSeq%_ep2d_bold",
  "ReceiveCoilActiveElements": "HEA;HEP",
  "ReceiveCoilName": "Head_32",
  "ReconMatrixPE": 96,
  "RefLinesPE": 12,
  "RepetitionTime": 1,
  "SAR": 0.0472593,
  "ScanOptions": "FS",
  "ScanningSequence": "EP",
  "SequenceName": "_epfid2d1_96",
  "SequenceVariant": "SK",
  "SeriesDescription": "func_run-02_task-movie",
  "SeriesNumber": 15,
  "ShimSetting": [4175, -7575, -7504, 351, 42, 577, 185, 15],
  "SliceThickness": 2.5,
  "SliceTiming": [0.735, 0, 0.49, 0.08, 0.57, 0.1625, 0.6525, 0.325, 0.815, 0.4075, 0.8975, 0.245, 0.735, 0, 0.49, 0.08, 0.57, 0.1625, 0.6525, 0.325, 0.815, 0.4075, 0.8975, 0.245, 0.735, 0, 0.49, 0.08, 0.57, 0.1625, 0.6525, 0.325, 0.815, 0.4075, 0.8975, 0.245, 0.735, 0, 0.49, 0.08, 0.57, 0.1625, 0.6525, 0.325, 0.815, 0.4075, 0.8975, 0.245],
  "SoftwareVersions": "syngo_MR_E11",
  "SpacingBetweenSlices": 2.5,
  "StationName": "AWP66112",
  "TaskName": "movie",
  "TotalReadoutTime": 0.0522511,
  "TxRefAmp": 233.562,
  "dcmmeta_affine": [
    [-2.496605396270752, 0.03486146032810211, 0.12548278272151947, 118.60808563232422],
    [0.03761223331093788, 2.4991331100463867, 0.05402711406350136, -109.73172760009766],
    [0.12468588352203369, -0.05584162846207619, 2.4962642192840576, -69.31338500976562],
    [0.0, 0.0, 0.0, 1.0]
],
  "dcmmeta_reorient_transform": [
    [0.0, -1.0, 0.0, 95.0],
    [1.0, 0.0, 0.0, 0.0],
    [0.0, 0.0, 1.0, 0.0],
    [0.0, 0.0, 0.0, 1.0]
],
  "dcmmeta_shape": [96, 96, 48, 498],
  "dcmmeta_slice_dim": 2,
  "dcmmeta_version": 0.6,
  "global": {
    "const": {
      "AccessionNumber": "A001267",
      "AcquisitionMatrix": [96, 0, 0, 96],
      "AngioFlag": "N",
      "BitsAllocated": 16,
      "BitsStored": 12,
      "BodyPartExamined": "BRAIN",
      "Columns": 672,
      "EchoNumbers": 1,
      "EchoTime": 33.0,
      "EchoTrainLength": 96,
      "FlipAngle": 59.0,
      "HighBit": 11,
      "ImageOrientationPatient": [0.99864217826079, -0.0150448934054, 0.04987435193521, 0.01394458483604, 0.99965325115382, 0.02233665174868],
      "ImagePositionPatient": [-850.98239191185, -836.6039403924, -126.61026128294],
      "ImageType": [
        "ORIGINAL",
        "PRIMARY",
        "FMRI",
        "NONE",
        "ND",
        "NORM",
        "MOSAIC"
],
      "ImagedNucleus": "1H",
      "ImagingFrequency": 123.252473,
      "InPlanePhaseEncodingDirection": "COL",
      "MRAcquisitionType": "2D",
      "MagneticFieldStrength": 3.0,
      "Manufacturer": "SIEMENS",
      "ManufacturerModelName": "Prisma",
      "Modality": "MR",
      "NumberOfAverages": 1.0,
      "NumberOfPhaseEncodingSteps": 96,
      "PercentPhaseFieldOfView": 100.0,
      "PercentSampling": 100.0,
      "PerformedProcedureStepStartTime": "183503.726000",
      "PhotometricInterpretation": "MONOCHROME2",
      "PixelBandwidth": 2365.0,
      "PixelRepresentation": 0,
      "PixelSpacing": [2.5, 2.5],
      "ProtocolName": "func_run-02_task-movie",
      "RepetitionTime": 1000.0,
      "Rows": 672,
      "SAR": 0.04725927637382,
      "SamplesPerPixel": 1,
      "ScanOptions": "FS",
      "ScanningSequence": "EP",
      "SequenceName": "*epfid2d1_96",
      "SequenceVariant": "SK",
      "SeriesDescription": "func_run-02_task-movie",
      "SeriesNumber": 15,
      "SeriesTime": "190516.125000",
      "SliceLocation": -65.627895181135,
      "SliceThickness": 2.5,
      "SmallestImagePixelValue": 0,
      "SoftwareVersions": "syngo MR E11",
      "SpacingBetweenSlices": 2.5000000378832,
      "SpecificCharacterSet": "ISO_IR 100",
      "StudyID": "5",
      "StudyTime": "183503.683000",
      "TransmitCoilName": "Body",
      "VariableFlipAngleFlag": "N",
      "WindowCenterWidthExplanation": "Algo1",
      "dBdt": 0.0},
    "slices": {}
  },
  "time": {
    "samples": {
      "AcquisitionNumber": [1, 2, 3, 4, 5, 6, 7, 8, 9, 10, 11, 12, 13, 14, 15, 16, 17, 18, 19, 20, 21, 22, 23, 24, 25, 26, 27, 28, 29, 30, 31, 32, 33, 34, 35, 36, 37, 38, 39, 40, 41, 42, 43, 44, 45, 46, 47, 48, 49, 50, 51, 52, 53, 54, 55, 56, 57, 58, 59, 60, 61, 62, 63, 64, 65, 66, 67, 68, 69, 70, 71, 72, 73, 74, 75, 76, 77, 78, 79, 80, 81, 82, 83, 84, 85, 86, 87, 88, 89, 90, 91, 92, 93, 94, 95, 96, 97, 98, 99, 100, 101, 102, 103, 104, 105, 106, 107, 108, 109, 110, 111, 112, 113, 114, 115, 116, 117, 118, 119, 120, 121, 122, 123, 124, 125, 126, 127, 128, 129, 130, 131, 132, 133, 134, 135, 136, 137, 138, 139, 140, 141, 142, 143, 144, 145, 146, 147, 148, 149, 150, 151, 152, 153, 154, 155, 156, 157, 158, 159, 160, 161, 162, 163, 164, 165, 166, 167, 168, 169, 170, 171, 172, 173, 174, 175, 176, 177, 178, 179, 180, 181, 182, 183, 184, 185, 186, 187, 188, 189, 190, 191, 192, 193, 194, 195, 196, 197, 198, 199, 200, 201, 202, 203, 204, 205, 206, 207, 208, 209, 210, 211, 212, 213, 214, 215, 216, 217, 218, 219, 220, 221, 222, 223, 224, 225, 226, 227, 228, 229, 230, 231, 232, 233, 234, 235, 236, 237, 238, 239, 240, 241, 242, 243, 244, 245, 246, 247, 248, 249, 250, 251, 252, 253, 254, 255, 256, 257, 258, 259, 260, 261, 262, 263, 264, 265, 266, 267, 268, 269, 270, 271, 272, 273, 274, 275, 276, 277, 278, 279, 280, 281, 282, 283, 284, 285, 286, 287, 288, 289, 290, 291, 292, 293, 294, 295, 296, 297, 298, 299, 300, 301, 302, 303, 304, 305, 306, 307, 308, 309, 310, 311, 312, 313, 314, 315, 316, 317, 318, 319, 320, 321, 322, 323, 324, 325, 326, 327, 328, 329, 330, 331, 332, 333, 334, 335, 336, 337, 338, 339, 340, 341, 342, 343, 344, 345, 346, 347, 348, 349, 350, 351, 352, 353, 354, 355, 356, 357, 358, 359, 360, 361, 362, 363, 364, 365, 366, 367, 368, 369, 370, 371, 372, 373, 374, 375, 376, 377, 378, 379, 380, 381, 382, 383, 384, 385, 386, 387, 388, 389, 390, 391, 392, 393, 394, 395, 396, 397, 398, 399, 400, 401, 402, 403, 404, 405, 406, 407, 408, 409, 410, 411, 412, 413, 414, 415, 416, 417, 418, 419, 420, 421, 422, 423, 424, 425, 426, 427, 428, 429, 430, 431, 432, 433, 434, 435, 436, 437, 438, 439, 440, 441, 442, 443, 444, 445, 446, 447, 448, 449, 450, 451, 452, 453, 454, 455, 456, 457, 458, 459, 460, 461, 462, 463, 464, 465, 466, 467, 468, 469, 470, 471, 472, 473, 474, 475, 476, 477, 478, 479, 480, 481, 482, 483, 484, 485, 486, 487, 488, 489, 490, 491, 492, 493, 494, 495, 496, 497, 498],
      "AcquisitionTime": ["190514.790000", "190515.790000", "190516.790000", "190517.790000", "190518.790000", "190519.790000", "190520.790000", "190521.790000", "190522.790000", "190523.790000", "190524.790000", "190525.790000", "190526.790000", "190527.790000", "190528.790000", "190529.790000", "190530.790000", "190531.790000", "190532.790000", "190533.790000", "190534.790000", "190535.790000", "190536.790000", "190537.790000", "190538.790000", "190539.790000", "190540.790000", "190541.790000", "190542.790000", "190543.790000", "190544.790000", "190545.790000", "190546.790000", "190547.790000", "190548.790000", "190549.790000", "190550.790000", "190551.790000", "190552.790000", "190553.790000", "190554.790000", "190555.790000", "190556.790000", "190557.790000", "190558.790000", "190559.790000", "190600.790000", "190601.790000", "190602.790000", "190603.790000", "190604.790000", "190605.790000", "190606.790000", "190607.790000", "190608.790000", "190609.790000", "190610.790000", "190611.790000", "190612.790000", "190613.790000", "190614.790000", "190615.790000", "190616.790000", "190617.790000", "190618.790000", "190619.790000", "190620.790000", "190621.790000", "190622.790000", "190623.790000", "190624.790000", "190625.790000", "190626.790000", "190627.790000", "190628.790000", "190629.790000", "190630.790000", "190631.790000", "190632.790000", "190633.790000", "190634.790000", "190635.790000", "190636.790000", "190637.790000", "190638.790000", "190639.790000", "190640.790000", "190641.790000", "190642.790000", "190643.790000", "190644.790000", "190645.790000", "190646.790000", "190647.790000", "190648.790000", "190649.790000", "190650.790000", "190651.790000", "190652.790000", "190653.790000", "190654.790000", "190655.790000", "190656.790000", "190657.790000", "190658.790000", "190659.790000", "190700.790000", "190701.790000", "190702.790000", "190703.790000", "190704.790000", "190705.790000", "190706.790000", "190707.790000", "190708.790000", "190709.790000", "190710.790000", "190711.790000", "190712.790000", "190713.790000", "190714.790000", "190715.790000", "190716.790000", "190717.790000", "190718.790000", "190719.790000", "190720.790000", "190721.790000", "190722.790000", "190723.790000", "190724.790000", "190725.790000", "190726.790000", "190727.790000", "190728.790000", "190729.790000", "190730.790000", "190731.790000", "190732.790000", "190733.790000", "190734.790000", "190735.790000", "190736.790000", "190737.790000", "190738.790000", "190739.790000", "190740.790000", "190741.790000", "190742.790000", "190743.790000", "190744.790000", "190745.790000", "190746.790000", "190747.790000", "190748.790000", "190749.790000", "190750.790000", "190751.790000", "190752.790000", "190753.790000", "190754.790000", "190755.790000", "190756.790000", "190757.790000", "190758.790000", "190759.790000", "190800.790000", "190801.790000", "190802.790000", "190803.790000", "190804.790000", "190805.790000", "190806.790000", "190807.790000", "190808.790000", "190809.790000", "190810.790000", "190811.790000", "190812.790000", "190813.790000", "190814.790000", "190815.790000", "190816.790000", "190817.790000", "190818.790000", "190819.790000", "190820.790000", "190821.790000", "190822.790000", "190823.790000", "190824.790000", "190825.790000", "190826.790000", "190827.790000", "190828.790000", "190829.790000", "190830.790000", "190831.790000", "190832.790000", "190833.790000", "190834.790000", "190835.790000", "190836.790000", "190837.790000", "190838.790000", "190839.790000", "190840.790000", "190841.790000", "190842.790000", "190843.790000", "190844.790000", "190845.790000", "190846.790000", "190847.790000", "190848.790000", "190849.790000", "190850.790000", "190851.790000", "190852.790000", "190853.790000", "190854.790000", "190855.790000", "190856.790000", "190857.790000", "190858.790000", "190859.790000", "190900.790000", "190901.790000", "190902.790000", "190903.790000", "190904.790000", "190905.790000", "190906.790000", "190907.790000", "190908.790000", "190909.790000", "190910.790000", "190911.790000", "190912.790000", "190913.790000", "190914.790000", "190915.790000", "190916.790000", "190917.790000", "190918.790000", "190919.790000", "190920.790000", "190921.790000", "190922.790000", "190923.790000", "190924.790000", "190925.790000", "190926.790000", "190927.790000", "190928.790000", "190929.790000", "190930.790000", "190931.790000", "190932.790000", "190933.790000", "190934.790000", "190935.790000", "190936.790000", "190937.790000", "190938.790000", "190939.790000", "190940.790000", "190941.790000", "190942.790000", "190943.790000", "190944.790000", "190945.790000", "190946.790000", "190947.790000", "190948.790000", "190949.790000", "190950.790000", "190951.790000", "190952.790000", "190953.790000", "190954.790000", "190955.790000", "190956.790000", "190957.790000", "190958.790000", "190959.790000", "191000.790000", "191001.790000", "191002.790000", "191003.790000", "191004.790000", "191005.790000", "191006.790000", "191007.790000", "191008.790000", "191009.790000", "191010.790000", "191011.790000", "191012.790000", "191013.790000", "191014.790000", "191015.790000", "191016.790000", "191017.790000", "191018.790000", "191019.790000", "191020.790000", "191021.790000", "191022.790000", "191023.790000", "191024.790000", "191025.790000", "191026.790000", "191027.790000", "191028.790000", "191029.790000", "191030.790000", "191031.790000", "191032.790000", "191033.790000", "191034.790000", "191035.790000", "191036.790000", "191037.790000", "191038.790000", "191039.790000", "191040.790000", "191041.790000", "191042.790000", "191043.790000", "191044.790000", "191045.790000", "191046.790000", "191047.790000", "191048.790000", "191049.790000", "191050.790000", "191051.790000", "191052.790000", "191053.790000", "191054.790000", "191055.790000", "191056.790000", "191057.790000", "191058.790000", "191059.790000", "191100.790000", "191101.790000", "191102.790000", "191103.790000", "191104.790000", "191105.790000", "191106.790000", "191107.790000", "191108.790000", "191109.790000", "191110.790000", "191111.790000", "191112.790000", "191113.790000", "191114.790000", "191115.790000", "191116.790000", "191117.790000", "191118.790000", "191119.790000", "191120.790000", "191121.790000", "191122.790000", "191123.790000", "191124.790000", "191125.790000", "191126.790000", "191127.790000", "191128.790000", "191129.790000", "191130.790000", "191131.790000", "191132.790000", "191133.790000", "191134.790000", "191135.790000", "191136.790000", "191137.790000", "191138.790000", "191139.790000", "191140.790000", "191141.790000", "191142.790000", "191143.790000", "191144.790000", "191145.790000", "191146.790000", "191147.790000", "191148.790000", "191149.790000", "191150.790000", "191151.790000", "191152.790000", "191153.790000", "191154.790000", "191155.790000", "191156.790000", "191157.790000", "191158.790000", "191159.790000", "191200.790000", "191201.790000", "191202.790000", "191203.790000", "191204.790000", "191205.790000", "191206.790000", "191207.790000", "191208.790000", "191209.790000", "191210.790000", "191211.790000", "191212.790000", "191213.790000", "191214.790000", "191215.790000", "191216.790000", "191217.790000", "191218.790000", "191219.790000", "191220.790000", "191221.790000", "191222.790000", "191223.790000", "191224.790000", "191225.790000", "191226.790000", "191227.790000", "191228.790000", "191229.790000", "191230.790000", "191231.790000", "191232.790000", "191233.790000", "191234.790000", "191235.790000", "191236.790000", "191237.790000", "191238.790000", "191239.790000", "191240.790000", "191241.790000", "191242.790000", "191243.790000", "191244.790000", "191245.790000", "191246.790000", "191247.790000", "191248.790000", "191249.790000", "191250.790000", "191251.790000", "191252.790000", "191253.790000", "191254.790000", "191255.790000", "191256.790000", "191257.790000", "191258.790000", "191259.790000", "191300.790000", "191301.790000", "191302.790000", "191303.790000", "191304.790000", "191305.790000", "191306.790000", "191307.790000", "191308.790000", "191309.790000", "191310.790000", "191311.790000", "191312.790000", "191313.790000", "191314.790000", "191315.790000", "191316.790000", "191317.790000", "191318.790000", "191319.790000", "191320.790000", "191321.790000", "191322.790000", "191323.790000", "191324.790000", "191325.790000", "191326.790000", "191327.790000", "191328.790000", "191329.790000", "191330.790000", "191331.790000"],
      "ContentTime": ["190516.129000", "190516.989000", "190518.025000", "190518.964000", "190519.949000", "190520.918000", "190521.978000", "190522.979000", "190523.936000", "190524.972000", "190525.957000", "190526.959000", "190527.954000", "190528.949000", "190529.980000", "190530.943000", "190531.949000", "190532.966000", "190533.956000", "190534.941000", "190535.990000", "190536.952000", "190537.975000", "190538.979000", "190539.963000", "190540.990000", "190541.976000", "190542.972000", "190543.931000", "190544.965000", "190545.947000", "190546.945000", "190547.949000", "190548.977000", "190549.968000", "190550.939000", "190551.968000", "190552.963000", "190553.973000", "190554.951000", "190555.945000", "190556.993000", "190557.958000", "190558.978000", "190559.994000", "190600.964000", "190601.949000", "190602.981000", "190604.020000", "190604.970000", "190605.948000", "190606.957000", "190607.975000", "190608.944000", "190609.970000", "190610.954000", "190611.973000", "190612.955000", "190613.973000", "190614.958000", "190615.973000", "190616.964000", "190617.950000", "190618.948000", "190619.966000", "190620.946000", "190621.944000", "190622.935000", "190623.947000", "190624.943000", "190625.957000", "190626.942000", "190627.963000", "190628.964000", "190629.956000", "190630.948000", "190631.953000", "190632.959000", "190633.943000", "190634.961000", "190635.963000", "190636.931000", "190637.968000", "190638.954000", "190639.974000", "190640.991000", "190641.969000", "190642.965000", "190643.974000", "190644.941000", "190645.984000", "190646.953000", "190647.980000", "190648.953000", "190649.986000", "190650.950000", "190651.934000", "190652.982000", "190653.998000", "190654.961000", "190655.977000", "190656.982000", "190657.944000", "190658.977000", "190700.033000", "190700.972000", "190701.942000", "190702.961000", "190703.968000", "190704.965000", "190705.962000", "190706.960000", "190707.981000", "190708.965000", "190709.970000", "190710.961000", "190711.951000", "190712.958000", "190713.956000", "190714.944000", "190715.941000", "190716.956000", "190717.962000", "190718.965000", "190720.011000", "190720.950000", "190721.951000", "190722.941000", "190723.982000", "190724.988000", "190725.989000", "190727.012000", "190727.965000", "190728.980000", "190729.969000", "190730.975000", "190731.977000", "190732.957000", "190733.976000", "190734.957000", "190735.973000", "190736.981000", "190738.008000", "190738.947000", "190739.964000", "190740.970000", "190741.994000", "190742.965000", "190743.958000", "190744.944000", "190745.949000", "190746.979000", "190747.954000", "190748.966000", "190749.998000", "190751.018000", "190751.958000", "190752.966000", "190753.972000", "190754.967000", "190755.994000", "190756.963000", "190757.950000", "190758.922000", "190759.944000", "190800.938000", "190801.985000", "190802.943000", "190803.967000", "190805.000000", "190806.003000", "190806.973000", "190807.963000", "190808.977000", "190809.970000", "190810.969000", "190811.967000", "190812.962000", "190813.942000", "190814.995000", "190815.967000", "190816.982000", "190817.973000", "190818.967000", "190819.997000", "190820.985000", "190821.986000", "190822.962000", "190823.969000", "190824.939000", "190825.972000", "190826.932000", "190827.974000", "190828.930000", "190829.949000", "190830.940000", "190831.951000", "190832.945000", "190833.978000", "190834.964000", "190835.947000", "190836.974000", "190837.960000", "190838.940000", "190839.944000", "190840.948000", "190842.023000", "190842.978000", "190843.990000", "190844.968000", "190845.960000", "190847.006000", "190848.008000", "190848.970000", "190849.961000", "190850.966000", "190851.976000", "190852.971000", "190853.978000", "190854.977000", "190855.967000", "190856.969000", "190857.981000", "190858.971000", "190859.961000", "190900.966000", "190901.958000", "190902.942000", "190903.933000", "190904.961000", "190905.953000", "190907.010000", "190907.952000", "190908.942000", "190909.988000", "190910.994000", "190911.923000", "190912.963000", "190913.952000", "190914.970000", "190915.969000", "190916.929000", "190917.967000", "190918.955000", "190919.967000", "190920.961000", "190921.959000", "190922.937000", "190923.959000", "190924.956000", "190925.951000", "190926.975000", "190927.945000", "190928.931000", "190929.944000", "190931.047000", "190932.030000", "190932.960000", "190933.978000", "190935.038000", "190935.947000", "190936.954000", "190937.950000", "190938.955000", "190939.954000", "190940.949000", "190941.945000", "190942.922000", "190943.950000", "190944.957000", "190945.971000", "190946.962000", "190947.956000", "190948.974000", "190949.925000", "190950.964000", "190951.941000", "190952.925000", "190954.011000", "190954.958000", "190955.943000", "190956.957000", "190957.944000", "190958.951000", "190959.963000", "191000.992000", "191001.979000", "191002.971000", "191003.971000", "191005.006000", "191006.012000", "191006.968000", "191007.996000", "191008.961000", "191009.959000", "191010.952000", "191011.944000", "191012.956000", "191013.963000", "191014.979000", "191015.955000", "191016.936000", "191017.958000", "191018.964000", "191019.956000", "191020.942000", "191021.949000", "191022.964000", "191023.971000", "191024.939000", "191025.961000", "191026.948000", "191027.973000", "191028.938000", "191029.944000", "191030.956000", "191031.952000", "191032.998000", "191033.979000", "191035.003000", "191035.949000", "191036.936000", "191037.938000", "191038.927000", "191039.976000", "191040.965000", "191041.961000", "191042.953000", "191043.975000", "191044.960000", "191045.971000", "191046.983000", "191047.963000", "191048.940000", "191049.958000", "191051.003000", "191051.941000", "191052.934000", "191053.963000", "191054.963000", "191055.918000", "191056.961000", "191057.961000", "191058.974000", "191059.965000", "191100.977000", "191101.952000", "191102.951000", "191103.964000", "191105.006000", "191105.975000", "191106.952000", "191107.986000", "191108.954000", "191109.968000", "191110.958000", "191111.952000", "191113.014000", "191113.966000", "191114.933000", "191115.960000", "191116.985000", "191117.942000", "191118.930000", "191119.961000", "191120.971000", "191121.954000", "191122.941000", "191123.936000", "191124.968000", "191125.949000", "191127.012000", "191127.978000", "191128.978000", "191129.960000", "191130.952000", "191132.029000", "191132.973000", "191133.970000", "191134.953000", "191135.950000", "191136.935000", "191137.940000", "191138.954000", "191139.956000", "191140.959000", "191141.984000", "191142.990000", "191143.984000", "191144.961000", "191145.942000", "191146.950000", "191147.934000", "191148.938000", "191149.936000", "191150.927000", "191151.976000", "191152.923000", "191153.944000", "191154.955000", "191155.955000", "191156.915000", "191157.960000", "191158.958000", "191159.947000", "191200.934000", "191201.965000", "191202.947000", "191203.958000", "191204.958000", "191205.963000", "191206.957000", "191207.950000", "191209.009000", "191209.980000", "191210.975000", "191211.941000", "191212.964000", "191213.948000", "191214.981000", "191215.944000", "191216.950000", "191217.969000", "191218.943000", "191219.943000", "191220.948000", "191221.951000", "191222.974000", "191223.965000", "191224.959000", "191225.966000", "191226.936000", "191227.927000", "191228.946000", "191229.978000", "191230.964000", "191231.938000", "191232.945000", "191233.973000", "191234.951000", "191235.949000", "191236.941000", "191237.964000", "191238.971000", "191239.956000", "191240.946000", "191241.959000", "191242.950000", "191243.960000", "191245.004000", "191245.971000", "191246.932000", "191247.984000", "191248.971000", "191249.959000", "191250.938000", "191251.946000", "191252.991000", "191253.947000", "191254.972000", "191255.968000", "191256.960000", "191257.956000", "191258.945000", "191259.949000", "191300.950000", "191301.981000", "191302.970000", "191303.929000", "191304.960000", "191305.974000", "191306.933000", "191307.972000", "191308.956000", "191309.961000", "191310.926000", "191311.988000", "191312.947000", "191313.944000", "191314.958000", "191315.943000", "191316.953000", "191317.964000", "191318.990000", "191319.947000", "191320.952000", "191321.949000", "191322.956000", "191323.958000", "191324.952000", "191325.947000", "191326.953000", "191327.904000", "191328.952000", "191329.951000", "191330.944000", "191331.968000", "191333.016000"],
