{
  "AcquisitionMatrixPE": 96,
  "AcquisitionNumber": 1,
  "AcquisitionTime": "13:18:2.475000",
  "BandwidthPerPixelPhaseEncode": 18.939,
  "BaseResolution": 96,
  "BodyPartExamined": "BRAIN",
  "ConsistencyInfo": "N4_VE11C_LATEST_20160120",
  "ConversionSoftware": "dcm2niix",
  "ConversionSoftwareVersion": "v1.0.20190902",
  "DerivedVendorReportedEchoSpacing": 0.000550011,
  "DeviceSerialNumber": "66112",
  "DwellTime": 2.2e-06,
  "EchoTime": 0.033,
  "EchoTrainLength": 96,
  "EffectiveEchoSpacing": 0.000550011,
  "FlipAngle": 59,
  "ImageOrientationPatientDICOM": [0.998604, 0.0360301, 0.0386377, -0.0369662, 0.999033, 0.023793],
  "ImageType": [
    "ORIGINAL",
    "PRIMARY",
    "FMRI",
    "NONE",
    "ND",
    "NORM",
    "MOSAIC"
],
  "ImagingFrequency": 123.252,
  "InPlanePhaseEncodingDirectionDICOM": "COL",
  "InstitutionAddress": "Maynard_3_Hanover_NH_US_03755",
  "InstitutionName": "Dartmouth_College_-_PBS",
  "InstitutionalDepartmentName": "Department",
  "MRAcquisitionType": "2D",
  "MagneticFieldStrength": 3,
  "Manufacturer": "Siemens",
  "ManufacturersModelName": "Prisma",
  "Modality": "MR",
  "MultibandAccelerationFactor": 4,
  "PartialFourier": 1,
  "PatientPosition": "HFS",
  "PercentPhaseFOV": 100,
  "PhaseEncodingDirection": "j-",
  "PhaseEncodingSteps": 96,
  "PhaseResolution": 1,
  "PixelBandwidth": 2365,
  "ProcedureStepDescription": "Gobbini_Matteo_1037_budapest",
  "ProtocolName": "func_run-04_task-movie",
  "PulseSequenceDetails": "%SiemensSeq%_ep2d_bold",
  "ReceiveCoilActiveElements": "HEA;HEP",
  "ReceiveCoilName": "Head_32",
  "ReconMatrixPE": 96,
  "RefLinesPE": 12,
  "RepetitionTime": 1,
  "SAR": 0.0473324,
  "ScanOptions": "FS",
  "ScanningSequence": "EP",
  "SequenceName": "_epfid2d1_96",
  "SequenceVariant": "SK",
  "SeriesDescription": "func_run-04_task-movie",
  "SeriesNumber": 29,
  "ShimSetting": [4137, -7708, -7314, 608, -31, 12, 10, 46],
  "SliceThickness": 2.5,
  "SliceTiming": [0.735, 0, 0.49, 0.0825, 0.5725, 0.165, 0.655, 0.3275, 0.8175, 0.41, 0.9, 0.245, 0.735, 0, 0.49, 0.0825, 0.5725, 0.165, 0.655, 0.3275, 0.8175, 0.41, 0.9, 0.245, 0.735, 0, 0.49, 0.0825, 0.5725, 0.165, 0.655, 0.3275, 0.8175, 0.41, 0.9, 0.245, 0.735, 0, 0.49, 0.0825, 0.5725, 0.165, 0.655, 0.3275, 0.8175, 0.41, 0.9, 0.245],
  "SoftwareVersions": "syngo_MR_E11",
  "SpacingBetweenSlices": 2.5,
  "StationName": "AWP66112",
  "TaskName": "movie",
  "TotalReadoutTime": 0.0522511,
  "TxRefAmp": 226.645,
  "dcmmeta_affine": [
    [-2.496508836746216, -0.09241557121276855, 0.09435778856277466, 128.0351104736328],
    [-0.09007532149553299, 2.4975831508636475, 0.06297021359205246, -105.35916900634766],
    [0.09659434109926224, -0.05948255583643913, 2.497425079345703, -69.523681640625],
    [0.0, 0.0, 0.0, 1.0]
],
  "dcmmeta_reorient_transform": [
    [0.0, -1.0, 0.0, 95.0],
    [1.0, 0.0, 0.0, 0.0],
    [0.0, 0.0, 1.0, 0.0],
    [0.0, 0.0, 0.0, 1.0]
],
  "dcmmeta_shape": [96, 96, 48, 618],
  "dcmmeta_slice_dim": 2,
  "dcmmeta_version": 0.6,
  "global": {
    "const": {
      "AccessionNumber": "A001351",
      "AcquisitionMatrix": [96, 0, 0, 96],
      "AngioFlag": "N",
      "BitsAllocated": 16,
      "BitsStored": 12,
      "BodyPartExamined": "BRAIN",
      "Columns": 672,
      "EchoNumbers": 1,
      "EchoTime": 33.0,
      "EchoTrainLength": 96,
      "FlipAngle": 59.0,
      "HighBit": 11,
      "ImageOrientationPatient": [0.99860350247295, 0.03603012952722, 0.03863773563517, -0.0369662283299, 0.99903322771361, 0.02379302181718],
      "ImagePositionPatient": [-811.63446521981, -877.15683717824, -120.12466707052],
      "ImageType": [
        "ORIGINAL",
        "PRIMARY",
        "FMRI",
        "NONE",
        "ND",
        "NORM",
        "MOSAIC"
],
      "ImagedNucleus": "1H",
      "ImagingFrequency": 123.252314,
      "InPlanePhaseEncodingDirection": "COL",
      "MRAcquisitionType": "2D",
      "MagneticFieldStrength": 3.0,
      "Manufacturer": "SIEMENS",
      "ManufacturerModelName": "Prisma",
      "Modality": "MR",
      "NumberOfAverages": 1.0,
      "NumberOfPhaseEncodingSteps": 96,
      "PercentPhaseFieldOfView": 100.0,
      "PercentSampling": 100.0,
      "PerformedProcedureStepStartTime": "114729.858000",
      "PhotometricInterpretation": "MONOCHROME2",
      "PixelBandwidth": 2365.0,
      "PixelRepresentation": 0,
      "PixelSpacing": [2.5, 2.5],
      "ProtocolName": "func_run-04_task-movie",
      "RepetitionTime": 1000.0,
      "Rows": 672,
      "SAR": 0.0473323693746,
      "SamplesPerPixel": 1,
      "ScanOptions": "FS",
      "ScanningSequence": "EP",
      "SequenceName": "*epfid2d1_96",
      "SequenceVariant": "SK",
      "SeriesDescription": "func_run-04_task-movie",
      "SeriesNumber": 29,
      "SeriesTime": "131803.780000",
      "SliceLocation": -67.273420119557,
      "SliceThickness": 2.5,
      "SmallestImagePixelValue": 0,
      "SoftwareVersions": "syngo MR E11",
      "SpacingBetweenSlices": 2.5000000520776,
      "SpecificCharacterSet": "ISO_IR 100",
      "StudyID": "3",
      "StudyTime": "114729.692000",
      "TransmitCoilName": "Body",
      "VariableFlipAngleFlag": "N",
      "WindowCenterWidthExplanation": "Algo1",
      "dBdt": 0.0},
    "slices": {}
  },
  "time": {
    "samples": {
      "AcquisitionNumber": [1, 2, 3, 4, 5, 6, 7, 8, 9, 10, 11, 12, 13, 14, 15, 16, 17, 18, 19, 20, 21, 22, 23, 24, 25, 26, 27, 28, 29, 30, 31, 32, 33, 34, 35, 36, 37, 38, 39, 40, 41, 42, 43, 44, 45, 46, 47, 48, 49, 50, 51, 52, 53, 54, 55, 56, 57, 58, 59, 60, 61, 62, 63, 64, 65, 66, 67, 68, 69, 70, 71, 72, 73, 74, 75, 76, 77, 78, 79, 80, 81, 82, 83, 84, 85, 86, 87, 88, 89, 90, 91, 92, 93, 94, 95, 96, 97, 98, 99, 100, 101, 102, 103, 104, 105, 106, 107, 108, 109, 110, 111, 112, 113, 114, 115, 116, 117, 118, 119, 120, 121, 122, 123, 124, 125, 126, 127, 128, 129, 130, 131, 132, 133, 134, 135, 136, 137, 138, 139, 140, 141, 142, 143, 144, 145, 146, 147, 148, 149, 150, 151, 152, 153, 154, 155, 156, 157, 158, 159, 160, 161, 162, 163, 164, 165, 166, 167, 168, 169, 170, 171, 172, 173, 174, 175, 176, 177, 178, 179, 180, 181, 182, 183, 184, 185, 186, 187, 188, 189, 190, 191, 192, 193, 194, 195, 196, 197, 198, 199, 200, 201, 202, 203, 204, 205, 206, 207, 208, 209, 210, 211, 212, 213, 214, 215, 216, 217, 218, 219, 220, 221, 222, 223, 224, 225, 226, 227, 228, 229, 230, 231, 232, 233, 234, 235, 236, 237, 238, 239, 240, 241, 242, 243, 244, 245, 246, 247, 248, 249, 250, 251, 252, 253, 254, 255, 256, 257, 258, 259, 260, 261, 262, 263, 264, 265, 266, 267, 268, 269, 270, 271, 272, 273, 274, 275, 276, 277, 278, 279, 280, 281, 282, 283, 284, 285, 286, 287, 288, 289, 290, 291, 292, 293, 294, 295, 296, 297, 298, 299, 300, 301, 302, 303, 304, 305, 306, 307, 308, 309, 310, 311, 312, 313, 314, 315, 316, 317, 318, 319, 320, 321, 322, 323, 324, 325, 326, 327, 328, 329, 330, 331, 332, 333, 334, 335, 336, 337, 338, 339, 340, 341, 342, 343, 344, 345, 346, 347, 348, 349, 350, 351, 352, 353, 354, 355, 356, 357, 358, 359, 360, 361, 362, 363, 364, 365, 366, 367, 368, 369, 370, 371, 372, 373, 374, 375, 376, 377, 378, 379, 380, 381, 382, 383, 384, 385, 386, 387, 388, 389, 390, 391, 392, 393, 394, 395, 396, 397, 398, 399, 400, 401, 402, 403, 404, 405, 406, 407, 408, 409, 410, 411, 412, 413, 414, 415, 416, 417, 418, 419, 420, 421, 422, 423, 424, 425, 426, 427, 428, 429, 430, 431, 432, 433, 434, 435, 436, 437, 438, 439, 440, 441, 442, 443, 444, 445, 446, 447, 448, 449, 450, 451, 452, 453, 454, 455, 456, 457, 458, 459, 460, 461, 462, 463, 464, 465, 466, 467, 468, 469, 470, 471, 472, 473, 474, 475, 476, 477, 478, 479, 480, 481, 482, 483, 484, 485, 486, 487, 488, 489, 490, 491, 492, 493, 494, 495, 496, 497, 498, 499, 500, 501, 502, 503, 504, 505, 506, 507, 508, 509, 510, 511, 512, 513, 514, 515, 516, 517, 518, 519, 520, 521, 522, 523, 524, 525, 526, 527, 528, 529, 530, 531, 532, 533, 534, 535, 536, 537, 538, 539, 540, 541, 542, 543, 544, 545, 546, 547, 548, 549, 550, 551, 552, 553, 554, 555, 556, 557, 558, 559, 560, 561, 562, 563, 564, 565, 566, 567, 568, 569, 570, 571, 572, 573, 574, 575, 576, 577, 578, 579, 580, 581, 582, 583, 584, 585, 586, 587, 588, 589, 590, 591, 592, 593, 594, 595, 596, 597, 598, 599, 600, 601, 602, 603, 604, 605, 606, 607, 608, 609, 610, 611, 612, 613, 614, 615, 616, 617, 618],
      "AcquisitionTime": ["131802.475000", "131803.475000", "131804.475000", "131805.475000", "131806.475000", "131807.475000", "131808.475000", "131809.475000", "131810.475000", "131811.475000", "131812.475000", "131813.475000", "131814.475000", "131815.475000", "131816.475000", "131817.475000", "131818.475000", "131819.475000", "131820.475000", "131821.475000", "131822.475000", "131823.475000", "131824.475000", "131825.475000", "131826.475000", "131827.475000", "131828.475000", "131829.475000", "131830.475000", "131831.475000", "131832.475000", "131833.475000", "131834.475000", "131835.475000", "131836.475000", "131837.475000", "131838.475000", "131839.475000", "131840.475000", "131841.475000", "131842.475000", "131843.475000", "131844.475000", "131845.475000", "131846.475000", "131847.475000", "131848.475000", "131849.475000", "131850.475000", "131851.475000", "131852.475000", "131853.475000", "131854.475000", "131855.475000", "131856.475000", "131857.475000", "131858.475000", "131859.475000", "131900.475000", "131901.475000", "131902.475000", "131903.475000", "131904.475000", "131905.475000", "131906.475000", "131907.475000", "131908.475000", "131909.475000", "131910.475000", "131911.475000", "131912.475000", "131913.475000", "131914.475000", "131915.475000", "131916.475000", "131917.475000", "131918.475000", "131919.475000", "131920.475000", "131921.475000", "131922.475000", "131923.475000", "131924.475000", "131925.475000", "131926.475000", "131927.475000", "131928.475000", "131929.475000", "131930.475000", "131931.475000", "131932.475000", "131933.475000", "131934.475000", "131935.475000", "131936.475000", "131937.475000", "131938.475000", "131939.475000", "131940.475000", "131941.475000", "131942.475000", "131943.475000", "131944.475000", "131945.475000", "131946.475000", "131947.475000", "131948.475000", "131949.475000", "131950.475000", "131951.475000", "131952.475000", "131953.475000", "131954.475000", "131955.475000", "131956.475000", "131957.475000", "131958.475000", "131959.475000", "132000.475000", "132001.475000", "132002.475000", "132003.475000", "132004.475000", "132005.475000", "132006.475000", "132007.475000", "132008.475000", "132009.475000", "132010.475000", "132011.475000", "132012.475000", "132013.475000", "132014.475000", "132015.475000", "132016.475000", "132017.475000", "132018.475000", "132019.475000", "132020.475000", "132021.475000", "132022.475000", "132023.475000", "132024.475000", "132025.475000", "132026.475000", "132027.475000", "132028.475000", "132029.475000", "132030.475000", "132031.475000", "132032.475000", "132033.475000", "132034.475000", "132035.475000", "132036.475000", "132037.475000", "132038.475000", "132039.475000", "132040.475000", "132041.475000", "132042.475000", "132043.475000", "132044.475000", "132045.475000", "132046.475000", "132047.475000", "132048.475000", "132049.475000", "132050.475000", "132051.475000", "132052.475000", "132053.475000", "132054.475000", "132055.475000", "132056.475000", "132057.475000", "132058.475000", "132059.475000", "132100.475000", "132101.475000", "132102.475000", "132103.475000", "132104.475000", "132105.475000", "132106.475000", "132107.475000", "132108.475000", "132109.475000", "132110.475000", "132111.475000", "132112.475000", "132113.475000", "132114.475000", "132115.475000", "132116.475000", "132117.475000", "132118.475000", "132119.475000", "132120.475000", "132121.475000", "132122.475000", "132123.475000", "132124.475000", "132125.475000", "132126.475000", "132127.475000", "132128.475000", "132129.475000", "132130.475000", "132131.475000", "132132.475000", "132133.475000", "132134.475000", "132135.475000", "132136.475000", "132137.475000", "132138.475000", "132139.475000", "132140.475000", "132141.475000", "132142.475000", "132143.475000", "132144.475000", "132145.475000", "132146.475000", "132147.475000", "132148.475000", "132149.475000", "132150.475000", "132151.475000", "132152.475000", "132153.475000", "132154.475000", "132155.475000", "132156.475000", "132157.475000", "132158.475000", "132159.475000", "132200.475000", "132201.475000", "132202.475000", "132203.475000", "132204.475000", "132205.475000", "132206.475000", "132207.475000", "132208.475000", "132209.475000", "132210.475000", "132211.475000", "132212.475000", "132213.475000", "132214.475000", "132215.475000", "132216.475000", "132217.475000", "132218.475000", "132219.475000", "132220.475000", "132221.475000", "132222.475000", "132223.475000", "132224.475000", "132225.475000", "132226.475000", "132227.475000", "132228.475000", "132229.475000", "132230.475000", "132231.475000", "132232.475000", "132233.475000", "132234.475000", "132235.475000", "132236.475000", "132237.475000", "132238.475000", "132239.475000", "132240.475000", "132241.475000", "132242.475000", "132243.475000", "132244.475000", "132245.475000", "132246.475000", "132247.475000", "132248.475000", "132249.475000", "132250.475000", "132251.475000", "132252.475000", "132253.475000", "132254.475000", "132255.475000", "132256.475000", "132257.475000", "132258.475000", "132259.475000", "132300.475000", "132301.475000", "132302.475000", "132303.475000", "132304.475000", "132305.475000", "132306.475000", "132307.475000", "132308.475000", "132309.475000", "132310.475000", "132311.475000", "132312.475000", "132313.475000", "132314.475000", "132315.475000", "132316.475000", "132317.475000", "132318.475000", "132319.475000", "132320.475000", "132321.475000", "132322.475000", "132323.475000", "132324.475000", "132325.475000", "132326.475000", "132327.475000", "132328.475000", "132329.475000", "132330.475000", "132331.475000", "132332.475000", "132333.475000", "132334.475000", "132335.475000", "132336.475000", "132337.475000", "132338.475000", "132339.475000", "132340.475000", "132341.475000", "132342.475000", "132343.475000", "132344.475000", "132345.475000", "132346.475000", "132347.475000", "132348.475000", "132349.475000", "132350.475000", "132351.475000", "132352.475000", "132353.475000", "132354.475000", "132355.475000", "132356.475000", "132357.475000", "132358.475000", "132359.475000", "132400.475000", "132401.475000", "132402.475000", "132403.475000", "132404.475000", "132405.475000", "132406.475000", "132407.475000", "132408.475000", "132409.475000", "132410.475000", "132411.475000", "132412.475000", "132413.475000", "132414.475000", "132415.475000", "132416.475000", "132417.475000", "132418.475000", "132419.475000", "132420.475000", "132421.475000", "132422.475000", "132423.475000", "132424.475000", "132425.475000", "132426.475000", "132427.475000", "132428.475000", "132429.475000", "132430.475000", "132431.475000", "132432.475000", "132433.475000", "132434.475000", "132435.475000", "132436.475000", "132437.475000", "132438.475000", "132439.475000", "132440.475000", "132441.475000", "132442.475000", "132443.475000", "132444.475000", "132445.475000", "132446.475000", "132447.475000", "132448.475000", "132449.475000", "132450.475000", "132451.475000", "132452.475000", "132453.475000", "132454.475000", "132455.475000", "132456.475000", "132457.475000", "132458.475000", "132459.475000", "132500.475000", "132501.475000", "132502.475000", "132503.475000", "132504.475000", "132505.475000", "132506.475000", "132507.475000", "132508.475000", "132509.475000", "132510.475000", "132511.475000", "132512.475000", "132513.475000", "132514.475000", "132515.475000", "132516.475000", "132517.475000", "132518.475000", "132519.475000", "132520.475000", "132521.475000", "132522.475000", "132523.475000", "132524.475000", "132525.475000", "132526.475000", "132527.475000", "132528.475000", "132529.475000", "132530.475000", "132531.475000", "132532.475000", "132533.475000", "132534.475000", "132535.475000", "132536.475000", "132537.475000", "132538.475000", "132539.475000", "132540.475000", "132541.475000", "132542.475000", "132543.475000", "132544.475000", "132545.475000", "132546.475000", "132547.475000", "132548.475000", "132549.475000", "132550.475000", "132551.475000", "132552.475000", "132553.475000", "132554.475000", "132555.475000", "132556.475000", "132557.475000", "132558.475000", "132559.475000", "132600.475000", "132601.475000", "132602.475000", "132603.475000", "132604.475000", "132605.475000", "132606.475000", "132607.475000", "132608.475000", "132609.475000", "132610.475000", "132611.475000", "132612.475000", "132613.475000", "132614.475000", "132615.475000", "132616.475000", "132617.475000", "132618.475000", "132619.475000", "132620.475000", "132621.475000", "132622.475000", "132623.475000", "132624.475000", "132625.475000", "132626.475000", "132627.475000", "132628.475000", "132629.475000", "132630.475000", "132631.475000", "132632.475000", "132633.475000", "132634.475000", "132635.475000", "132636.475000", "132637.475000", "132638.475000", "132639.475000", "132640.475000", "132641.475000", "132642.475000", "132643.475000", "132644.475000", "132645.475000", "132646.475000", "132647.475000", "132648.475000", "132649.475000", "132650.475000", "132651.475000", "132652.475000", "132653.475000", "132654.475000", "132655.475000", "132656.475000", "132657.475000", "132658.475000", "132659.475000", "132700.475000", "132701.475000", "132702.475000", "132703.475000", "132704.475000", "132705.475000", "132706.475000", "132707.475000", "132708.475000", "132709.475000", "132710.475000", "132711.475000", "132712.475000", "132713.475000", "132714.475000", "132715.475000", "132716.475000", "132717.475000", "132718.475000", "132719.475000", "132720.475000", "132721.475000", "132722.475000", "132723.475000", "132724.475000", "132725.475000", "132726.475000", "132727.475000", "132728.475000", "132729.475000", "132730.475000", "132731.475000", "132732.475000", "132733.475000", "132734.475000", "132735.475000", "132736.475000", "132737.475000", "132738.475000", "132739.475000", "132740.475000", "132741.475000", "132742.475000", "132743.475000", "132744.475000", "132745.475000", "132746.475000", "132747.475000", "132748.475000", "132749.475000", "132750.475000", "132751.475000", "132752.475000", "132753.475000", "132754.475000", "132755.475000", "132756.475000", "132757.475000", "132758.475000", "132759.475000", "132800.475000", "132801.475000", "132802.475000", "132803.475000", "132804.475000", "132805.475000", "132806.475000", "132807.475000", "132808.475000", "132809.475000", "132810.475000", "132811.475000", "132812.475000", "132813.475000", "132814.475000", "132815.475000", "132816.475000", "132817.475000", "132818.475000", "132819.475000"],
      "ContentTime": ["131803.785000", "131804.637000", "131805.624000", "131806.638000", "131807.706000", "131808.660000", "131809.683000", "131810.636000", "131811.621000", "131812.632000", "131813.608000", "131814.617000", "131815.622000", "131816.583000", "131817.632000", "131818.626000", "131819.611000", "131820.591000", "131821.648000", "131822.589000", "131823.596000", "131824.633000", "131825.629000", "131826.682000", "131827.636000", "131828.592000", "131829.615000", "131830.620000", "131831.615000", "131832.615000", "131833.632000", "131834.590000", "131835.583000", "131836.615000", "131837.604000", "131838.612000", "131839.608000", "131840.617000", "131841.605000", "131842.602000", "131843.615000", "131844.630000", "131845.601000", "131846.613000", "131847.610000", "131848.618000", "131849.593000", "131850.617000", "131851.628000", "131852.646000", "131853.610000", "131854.604000", "131855.614000", "131856.606000", "131857.586000", "131858.622000", "131859.615000", "131900.627000", "131901.632000", "131902.622000", "131903.629000", "131904.658000", "131905.654000", "131906.599000", "131907.624000", "131908.643000", "131909.611000", "131910.612000", "131911.621000", "131912.611000", "131913.619000", "131914.628000", "131915.637000", "131916.635000", "131917.627000", "131918.651000", "131919.692000", "131920.648000", "131921.620000", "131922.605000", "131923.609000", "131924.644000", "131925.624000", "131926.624000", "131927.596000", "131928.617000", "131929.614000", "131930.656000", "131931.632000", "131932.634000", "131933.657000", "131934.635000", "131935.634000", "131936.622000", "131937.634000", "131938.621000", "131939.643000", "131940.614000", "131941.605000", "131942.605000", "131943.662000", "131944.629000", "131945.628000", "131946.613000", "131947.633000", "131948.640000", "131949.653000", "131950.621000", "131951.613000", "131952.594000", "131953.606000", "131954.636000", "131955.609000", "131956.610000", "131957.628000", "131958.619000", "131959.629000", "132000.621000", "132001.641000", "132002.624000", "132003.616000", "132004.637000", "132005.598000", "132006.617000", "132007.626000", "132008.622000", "132009.609000", "132010.614000", "132011.631000", "132012.610000", "132013.600000", "132014.620000", "132015.584000", "132016.616000", "132017.646000", "132018.645000", "132019.642000", "132020.640000", "132021.617000", "132022.649000", "132023.655000", "132024.626000", "132025.613000", "132026.636000", "132027.625000", "132028.620000", "132029.624000", "132030.617000", "132031.610000", "132032.617000", "132033.635000", "132034.637000", "132035.613000", "132036.624000", "132037.623000", "132038.628000", "132039.615000", "132040.614000", "132041.585000", "132042.609000", "132043.608000", "132044.626000", "132045.621000", "132046.662000", "132047.609000", "132048.635000", "132049.613000", "132050.592000", "132051.625000", "132052.611000", "132053.683000", "132054.623000", "132055.635000", "132056.646000", "132057.636000", "132058.613000", "132059.621000", "132100.628000", "132101.614000", "132102.619000", "132103.621000", "132104.629000", "132105.625000", "132106.612000", "132107.615000", "132108.610000", "132109.646000", "132110.616000", "132111.641000", "132112.640000", "132113.628000", "132114.611000", "132115.579000", "132116.627000", "132117.630000", "132118.636000", "132119.620000", "132120.662000", "132121.624000", "132122.600000", "132123.601000", "132124.615000", "132125.613000", "132126.601000", "132127.594000", "132128.584000", "132129.635000", "132130.605000", "132131.605000", "132132.609000", "132133.635000", "132134.617000", "132135.629000", "132136.614000", "132137.646000", "132138.611000", "132139.623000", "132140.649000", "132141.656000", "132142.647000", "132143.602000", "132144.629000", "132145.632000", "132146.588000", "132147.620000", "132148.614000", "132149.620000", "132150.616000", "132151.627000", "132152.631000", "132153.659000", "132154.620000", "132155.600000", "132156.620000", "132157.589000", "132158.610000", "132159.626000", "132200.592000", "132201.612000", "132202.598000", "132203.630000", "132204.608000", "132205.616000", "132206.596000", "132207.652000", "132208.578000", "132209.630000", "132210.662000", "132211.625000", "132212.676000", "132213.617000", "132214.687000", "132215.610000", "132216.602000", "132217.641000", "132218.625000", "132219.611000", "132220.646000", "132221.624000", "132222.688000", "132223.631000", "132224.612000", "132225.620000", "132226.605000", "132227.608000", "132228.617000", "132229.645000", "132230.672000", "132231.596000", "132232.622000", "132233.618000", "132234.607000", "132235.631000", "132236.612000", "132237.631000", "132238.634000", "132239.620000", "132240.630000", "132241.619000", "132242.621000", "132243.622000", "132244.612000", "132245.626000", "132246.622000", "132247.613000", "132248.619000", "132249.637000", "132250.641000", "132251.624000", "132252.615000", "132253.628000", "132254.629000", "132255.614000", "132256.614000", "132257.620000", "132258.610000", "132259.619000", "132300.651000", "132301.616000", "132302.620000", "132303.625000", "132304.608000", "132305.606000", "132306.625000", "132307.614000", "132308.609000", "132309.600000", "132310.611000", "132311.605000", "132312.611000", "132313.595000", "132314.683000", "132315.612000", "132316.627000", "132317.618000", "132318.614000", "132319.622000", "132320.604000", "132321.657000", "132322.623000", "132323.646000", "132324.614000", "132325.588000", "132326.616000", "132327.614000", "132328.599000", "132329.646000", "132330.606000", "132331.628000", "132332.596000", "132333.634000", "132334.632000", "132335.618000", "132336.623000", "132337.620000", "132338.636000", "132339.648000", "132340.622000", "132341.649000", "132342.611000", "132343.633000", "132344.611000", "132345.630000", "132346.631000", "132347.629000", "132348.607000", "132349.610000", "132350.604000", "132351.617000", "132352.629000", "132353.620000", "132354.628000", "132355.619000", "132356.598000", "132357.648000", "132358.624000", "132359.602000", "132400.643000", "132401.615000", "132402.619000", "132403.593000", "132404.635000", "132405.616000", "132406.619000", "132407.656000", "132408.643000", "132409.635000", "132410.644000", "132411.633000", "132412.643000", "132413.613000", "132414.619000", "132415.587000", "132416.599000", "132417.597000", "132418.627000", "132419.654000", "132420.635000", "132421.625000", "132422.640000", "132423.660000", "132424.620000", "132425.620000", "132426.629000", "132427.628000", "132428.689000", "132429.639000", "132430.647000", "132431.637000", "132432.621000", "132433.623000", "132434.618000", "132435.624000", "132436.662000", "132437.638000", "132438.623000", "132439.644000", "132440.629000", "132441.631000", "132442.597000", "132443.622000", "132444.712000", "132445.644000", "132446.650000", "132447.654000", "132448.599000", "132449.611000", "132450.598000", "132451.648000", "132452.618000", "132453.607000", "132454.606000", "132455.633000", "132456.627000", "132457.692000", "132458.654000", "132459.623000", "132500.607000", "132501.618000", "132502.646000", "132503.637000", "132504.623000", "132505.608000", "132506.640000", "132507.645000", "132508.616000", "132509.619000", "132510.607000", "132511.629000", "132512.634000", "132513.645000", "132514.612000", "132515.617000", "132516.644000", "132517.625000", "132518.628000", "132519.602000", "132520.636000", "132521.621000", "132522.620000", "132523.631000", "132524.630000", "132525.638000", "132526.607000", "132527.635000", "132528.627000", "132529.622000", "132530.613000", "132531.629000", "132532.618000", "132533.619000", "132534.620000", "132535.692000", "132536.621000", "132537.571000", "132538.619000", "132539.621000", "132540.606000", "132541.623000", "132542.658000", "132543.662000", "132544.619000", "132545.605000", "132546.618000", "132547.627000", "132548.613000", "132549.625000", "132550.592000", "132551.601000", "132552.627000", "132553.648000", "132554.637000", "132555.624000", "132556.623000", "132557.609000", "132558.603000", "132559.588000", "132600.658000", "132601.585000", "132602.609000", "132603.614000", "132604.621000", "132605.610000", "132606.628000", "132607.616000", "132608.605000", "132609.598000", "132610.608000", "132611.621000", "132612.617000", "132613.618000", "132614.648000", "132615.628000", "132616.614000", "132617.636000", "132618.641000", "132619.628000", "132620.605000", "132621.613000", "132622.651000", "132623.607000", "132624.612000", "132625.628000", "132626.583000", "132627.625000", "132628.617000", "132629.608000", "132630.593000", "132631.604000", "132632.623000", "132633.614000", "132634.613000", "132635.610000", "132636.607000", "132637.603000", "132638.623000", "132639.601000", "132640.617000", "132641.622000", "132642.610000", "132643.636000", "132644.617000", "132645.622000", "132646.604000", "132647.612000", "132648.595000", "132649.627000", "132650.613000", "132651.593000", "132652.624000", "132653.626000", "132654.647000", "132655.607000", "132656.621000", "132657.614000", "132658.599000", "132659.606000", "132700.602000", "132701.608000", "132702.643000", "132703.622000", "132704.646000", "132705.605000", "132706.619000", "132707.616000", "132708.644000", "132709.629000", "132710.657000", "132711.631000", "132712.689000", "132713.636000", "132714.613000", "132715.618000", "132716.591000", "132717.593000", "132718.612000", "132719.633000", "132720.661000", "132721.631000", "132722.614000", "132723.603000", "132724.627000", "132725.606000", "132726.623000", "132727.610000", "132728.602000", "132729.624000", "132730.623000", "132731.603000", "132732.609000", "132733.594000", "132734.648000", "132735.606000", "132736.606000", "132737.615000", "132738.648000", "132739.618000", "132740.617000", "132741.615000", "132742.602000", "132743.609000", "132744.606000", "132745.572000", "132746.623000", "132747.603000", "132748.628000", "132749.606000", "132750.634000", "132751.613000", "132752.613000", "132753.600000", "132754.597000", "132755.596000", "132756.614000", "132757.620000", "132758.629000", "132759.619000", "132800.613000", "132801.601000", "132802.641000", "132803.640000", "132804.593000", "132805.613000", "132806.629000", "132807.622000", "132808.604000", "132809.620000", "132810.605000", "132811.579000", "132812.599000", "132813.617000", "132814.648000", "132815.611000", "132816.640000", "132817.636000", "132818.624000", "132819.579000", "132820.669000"],
