{
  "AcquisitionMatrixPE": 96,
  "AcquisitionNumber": 1,
  "AcquisitionTime": "13:08:35.870000",
  "BandwidthPerPixelPhaseEncode": 18.939,
  "BaseResolution": 96,
  "BodyPartExamined": "BRAIN",
  "ConsistencyInfo": "N4_VE11C_LATEST_20160120",
  "ConversionSoftware": "dcm2niix",
  "ConversionSoftwareVersion": "v1.0.20190902",
  "DerivedVendorReportedEchoSpacing": 0.000550011,
  "DeviceSerialNumber": "66112",
  "DwellTime": 2.2e-06,
  "EchoTime": 0.033,
  "EchoTrainLength": 96,
  "EffectiveEchoSpacing": 0.000550011,
  "FlipAngle": 59,
  "ImageOrientationPatientDICOM": [0.998604, 0.0360301, 0.0386377, -0.0369662, 0.999033, 0.023793],
  "ImageType": [
    "ORIGINAL",
    "PRIMARY",
    "FMRI",
    "NONE",
    "ND",
    "NORM",
    "MOSAIC"
],
  "ImagingFrequency": 123.252,
  "InPlanePhaseEncodingDirectionDICOM": "COL",
  "InstitutionAddress": "Maynard_3_Hanover_NH_US_03755",
  "InstitutionName": "Dartmouth_College_-_PBS",
  "InstitutionalDepartmentName": "Department",
  "MRAcquisitionType": "2D",
  "MagneticFieldStrength": 3,
  "Manufacturer": "Siemens",
  "ManufacturersModelName": "Prisma",
  "Modality": "MR",
  "MultibandAccelerationFactor": 4,
  "PartialFourier": 1,
  "PatientPosition": "HFS",
  "PercentPhaseFOV": 100,
  "PhaseEncodingDirection": "j-",
  "PhaseEncodingSteps": 96,
  "PhaseResolution": 1,
  "PixelBandwidth": 2365,
  "ProcedureStepDescription": "Gobbini_Matteo_1037_budapest",
  "ProtocolName": "func_run-03_task-movie",
  "PulseSequenceDetails": "%SiemensSeq%_ep2d_bold",
  "ReceiveCoilActiveElements": "HEA;HEP",
  "ReceiveCoilName": "Head_32",
  "ReconMatrixPE": 96,
  "RefLinesPE": 12,
  "RepetitionTime": 1,
  "SAR": 0.047294,
  "ScanOptions": "FS",
  "ScanningSequence": "EP",
  "SequenceName": "_epfid2d1_96",
  "SequenceVariant": "SK",
  "SeriesDescription": "func_run-03_task-movie",
  "SeriesNumber": 22,
  "ShimSetting": [4137, -7708, -7314, 608, -31, 12, 10, 46],
  "SliceThickness": 2.5,
  "SliceTiming": [0.735, 0, 0.49, 0.0825, 0.5725, 0.165, 0.655, 0.3275, 0.8175, 0.41, 0.9, 0.245, 0.735, 0, 0.49, 0.0825, 0.5725, 0.165, 0.655, 0.3275, 0.8175, 0.41, 0.9, 0.245, 0.735, 0, 0.49, 0.0825, 0.5725, 0.165, 0.655, 0.3275, 0.8175, 0.41, 0.9, 0.245, 0.735, 0, 0.49, 0.0825, 0.5725, 0.165, 0.655, 0.3275, 0.8175, 0.41, 0.9, 0.245],
  "SoftwareVersions": "syngo_MR_E11",
  "SpacingBetweenSlices": 2.5,
  "StationName": "AWP66112",
  "TaskName": "movie",
  "TotalReadoutTime": 0.0522511,
  "TxRefAmp": 226.645,
  "dcmmeta_affine": [
    [-2.496508836746216, -0.09241557121276855, 0.09435778856277466, 128.0351104736328],
    [-0.09007532149553299, 2.4975831508636475, 0.06297021359205246, -105.35916900634766],
    [0.09659434109926224, -0.05948255583643913, 2.497425079345703, -69.523681640625],
    [0.0, 0.0, 0.0, 1.0]
],
  "dcmmeta_reorient_transform": [
    [0.0, -1.0, 0.0, 95.0],
    [1.0, 0.0, 0.0, 0.0],
    [0.0, 0.0, 1.0, 0.0],
    [0.0, 0.0, 0.0, 1.0]
],
  "dcmmeta_shape": [96, 96, 48, 535],
  "dcmmeta_slice_dim": 2,
  "dcmmeta_version": 0.6,
  "global": {
    "const": {
      "AccessionNumber": "A001351",
      "AcquisitionMatrix": [96, 0, 0, 96],
      "AngioFlag": "N",
      "BitsAllocated": 16,
      "BitsStored": 12,
      "BodyPartExamined": "BRAIN",
      "Columns": 672,
      "EchoNumbers": 1,
      "EchoTime": 33.0,
      "EchoTrainLength": 96,
      "FlipAngle": 59.0,
      "HighBit": 11,
      "ImageOrientationPatient": [0.99860350247295, 0.03603012952722, 0.03863773563517, -0.0369662283299, 0.99903322771361, 0.02379302181718],
      "ImagePositionPatient": [-811.63446521981, -877.15683717824, -120.12466707052],
      "ImageType": [
        "ORIGINAL",
        "PRIMARY",
        "FMRI",
        "NONE",
        "ND",
        "NORM",
        "MOSAIC"
],
      "ImagedNucleus": "1H",
      "ImagingFrequency": 123.25231,
      "InPlanePhaseEncodingDirection": "COL",
      "MRAcquisitionType": "2D",
      "MagneticFieldStrength": 3.0,
      "Manufacturer": "SIEMENS",
      "ManufacturerModelName": "Prisma",
      "Modality": "MR",
      "NumberOfAverages": 1.0,
      "NumberOfPhaseEncodingSteps": 96,
      "PercentPhaseFieldOfView": 100.0,
      "PercentSampling": 100.0,
      "PerformedProcedureStepStartTime": "114729.858000",
      "PhotometricInterpretation": "MONOCHROME2",
      "PixelBandwidth": 2365.0,
      "PixelRepresentation": 0,
      "PixelSpacing": [2.5, 2.5],
      "ProtocolName": "func_run-03_task-movie",
      "RepetitionTime": 1000.0,
      "Rows": 672,
      "SAR": 0.04729403425761,
      "SamplesPerPixel": 1,
      "ScanOptions": "FS",
      "ScanningSequence": "EP",
      "SequenceName": "*epfid2d1_96",
      "SequenceVariant": "SK",
      "SeriesDescription": "func_run-03_task-movie",
      "SeriesNumber": 22,
      "SeriesTime": "130837.506000",
      "SliceLocation": -67.273420119557,
      "SliceThickness": 2.5,
      "SmallestImagePixelValue": 0,
      "SoftwareVersions": "syngo MR E11",
      "SpacingBetweenSlices": 2.5000000520776,
      "SpecificCharacterSet": "ISO_IR 100",
      "StudyID": "3",
      "StudyTime": "114729.692000",
      "TransmitCoilName": "Body",
      "VariableFlipAngleFlag": "N",
      "WindowCenterWidthExplanation": "Algo1",
      "dBdt": 0.0},
    "slices": {}
  },
  "time": {
    "samples": {
      "AcquisitionNumber": [1, 2, 3, 4, 5, 6, 7, 8, 9, 10, 11, 12, 13, 14, 15, 16, 17, 18, 19, 20, 21, 22, 23, 24, 25, 26, 27, 28, 29, 30, 31, 32, 33, 34, 35, 36, 37, 38, 39, 40, 41, 42, 43, 44, 45, 46, 47, 48, 49, 50, 51, 52, 53, 54, 55, 56, 57, 58, 59, 60, 61, 62, 63, 64, 65, 66, 67, 68, 69, 70, 71, 72, 73, 74, 75, 76, 77, 78, 79, 80, 81, 82, 83, 84, 85, 86, 87, 88, 89, 90, 91, 92, 93, 94, 95, 96, 97, 98, 99, 100, 101, 102, 103, 104, 105, 106, 107, 108, 109, 110, 111, 112, 113, 114, 115, 116, 117, 118, 119, 120, 121, 122, 123, 124, 125, 126, 127, 128, 129, 130, 131, 132, 133, 134, 135, 136, 137, 138, 139, 140, 141, 142, 143, 144, 145, 146, 147, 148, 149, 150, 151, 152, 153, 154, 155, 156, 157, 158, 159, 160, 161, 162, 163, 164, 165, 166, 167, 168, 169, 170, 171, 172, 173, 174, 175, 176, 177, 178, 179, 180, 181, 182, 183, 184, 185, 186, 187, 188, 189, 190, 191, 192, 193, 194, 195, 196, 197, 198, 199, 200, 201, 202, 203, 204, 205, 206, 207, 208, 209, 210, 211, 212, 213, 214, 215, 216, 217, 218, 219, 220, 221, 222, 223, 224, 225, 226, 227, 228, 229, 230, 231, 232, 233, 234, 235, 236, 237, 238, 239, 240, 241, 242, 243, 244, 245, 246, 247, 248, 249, 250, 251, 252, 253, 254, 255, 256, 257, 258, 259, 260, 261, 262, 263, 264, 265, 266, 267, 268, 269, 270, 271, 272, 273, 274, 275, 276, 277, 278, 279, 280, 281, 282, 283, 284, 285, 286, 287, 288, 289, 290, 291, 292, 293, 294, 295, 296, 297, 298, 299, 300, 301, 302, 303, 304, 305, 306, 307, 308, 309, 310, 311, 312, 313, 314, 315, 316, 317, 318, 319, 320, 321, 322, 323, 324, 325, 326, 327, 328, 329, 330, 331, 332, 333, 334, 335, 336, 337, 338, 339, 340, 341, 342, 343, 344, 345, 346, 347, 348, 349, 350, 351, 352, 353, 354, 355, 356, 357, 358, 359, 360, 361, 362, 363, 364, 365, 366, 367, 368, 369, 370, 371, 372, 373, 374, 375, 376, 377, 378, 379, 380, 381, 382, 383, 384, 385, 386, 387, 388, 389, 390, 391, 392, 393, 394, 395, 396, 397, 398, 399, 400, 401, 402, 403, 404, 405, 406, 407, 408, 409, 410, 411, 412, 413, 414, 415, 416, 417, 418, 419, 420, 421, 422, 423, 424, 425, 426, 427, 428, 429, 430, 431, 432, 433, 434, 435, 436, 437, 438, 439, 440, 441, 442, 443, 444, 445, 446, 447, 448, 449, 450, 451, 452, 453, 454, 455, 456, 457, 458, 459, 460, 461, 462, 463, 464, 465, 466, 467, 468, 469, 470, 471, 472, 473, 474, 475, 476, 477, 478, 479, 480, 481, 482, 483, 484, 485, 486, 487, 488, 489, 490, 491, 492, 493, 494, 495, 496, 497, 498, 499, 500, 501, 502, 503, 504, 505, 506, 507, 508, 509, 510, 511, 512, 513, 514, 515, 516, 517, 518, 519, 520, 521, 522, 523, 524, 525, 526, 527, 528, 529, 530, 531, 532, 533, 534, 535],
      "AcquisitionTime": ["130835.870000", "130836.870000", "130837.870000", "130838.870000", "130839.870000", "130840.870000", "130841.870000", "130842.870000", "130843.870000", "130844.870000", "130845.870000", "130846.870000", "130847.870000", "130848.870000", "130849.870000", "130850.870000", "130851.870000", "130852.870000", "130853.870000", "130854.870000", "130855.870000", "130856.870000", "130857.870000", "130858.870000", "130859.870000", "130900.870000", "130901.870000", "130902.870000", "130903.870000", "130904.870000", "130905.870000", "130906.870000", "130907.870000", "130908.870000", "130909.870000", "130910.870000", "130911.870000", "130912.870000", "130913.870000", "130914.870000", "130915.870000", "130916.870000", "130917.870000", "130918.870000", "130919.870000", "130920.870000", "130921.870000", "130922.870000", "130923.870000", "130924.870000", "130925.870000", "130926.870000", "130927.870000", "130928.870000", "130929.870000", "130930.870000", "130931.870000", "130932.870000", "130933.870000", "130934.870000", "130935.870000", "130936.870000", "130937.870000", "130938.870000", "130939.870000", "130940.870000", "130941.870000", "130942.870000", "130943.870000", "130944.870000", "130945.870000", "130946.870000", "130947.870000", "130948.870000", "130949.870000", "130950.870000", "130951.870000", "130952.870000", "130953.870000", "130954.870000", "130955.870000", "130956.870000", "130957.870000", "130958.870000", "130959.870000", "131000.870000", "131001.870000", "131002.870000", "131003.870000", "131004.870000", "131005.870000", "131006.870000", "131007.870000", "131008.870000", "131009.870000", "131010.870000", "131011.870000", "131012.870000", "131013.870000", "131014.870000", "131015.870000", "131016.870000", "131017.870000", "131018.870000", "131019.870000", "131020.870000", "131021.870000", "131022.870000", "131023.870000", "131024.870000", "131025.870000", "131026.870000", "131027.870000", "131028.870000", "131029.870000", "131030.870000", "131031.870000", "131032.870000", "131033.870000", "131034.870000", "131035.870000", "131036.870000", "131037.870000", "131038.870000", "131039.870000", "131040.870000", "131041.870000", "131042.870000", "131043.870000", "131044.870000", "131045.870000", "131046.870000", "131047.870000", "131048.870000", "131049.870000", "131050.870000", "131051.870000", "131052.870000", "131053.870000", "131054.870000", "131055.870000", "131056.870000", "131057.870000", "131058.870000", "131059.870000", "131100.870000", "131101.870000", "131102.870000", "131103.870000", "131104.870000", "131105.870000", "131106.870000", "131107.870000", "131108.870000", "131109.870000", "131110.870000", "131111.870000", "131112.870000", "131113.870000", "131114.870000", "131115.870000", "131116.870000", "131117.870000", "131118.870000", "131119.870000", "131120.870000", "131121.870000", "131122.870000", "131123.870000", "131124.870000", "131125.870000", "131126.870000", "131127.870000", "131128.870000", "131129.870000", "131130.870000", "131131.870000", "131132.870000", "131133.870000", "131134.870000", "131135.870000", "131136.870000", "131137.870000", "131138.870000", "131139.870000", "131140.870000", "131141.870000", "131142.870000", "131143.870000", "131144.870000", "131145.870000", "131146.870000", "131147.870000", "131148.870000", "131149.870000", "131150.870000", "131151.870000", "131152.870000", "131153.870000", "131154.870000", "131155.870000", "131156.870000", "131157.870000", "131158.870000", "131159.870000", "131200.870000", "131201.870000", "131202.870000", "131203.870000", "131204.870000", "131205.870000", "131206.870000", "131207.870000", "131208.870000", "131209.870000", "131210.870000", "131211.870000", "131212.870000", "131213.870000", "131214.870000", "131215.870000", "131216.870000", "131217.870000", "131218.870000", "131219.870000", "131220.870000", "131221.870000", "131222.870000", "131223.870000", "131224.870000", "131225.870000", "131226.870000", "131227.870000", "131228.870000", "131229.870000", "131230.870000", "131231.870000", "131232.870000", "131233.870000", "131234.870000", "131235.870000", "131236.870000", "131237.870000", "131238.870000", "131239.870000", "131240.870000", "131241.870000", "131242.870000", "131243.870000", "131244.870000", "131245.870000", "131246.870000", "131247.870000", "131248.870000", "131249.870000", "131250.870000", "131251.870000", "131252.870000", "131253.870000", "131254.870000", "131255.870000", "131256.870000", "131257.870000", "131258.870000", "131259.870000", "131300.870000", "131301.870000", "131302.870000", "131303.870000", "131304.870000", "131305.870000", "131306.870000", "131307.870000", "131308.870000", "131309.870000", "131310.870000", "131311.870000", "131312.870000", "131313.870000", "131314.870000", "131315.870000", "131316.870000", "131317.870000", "131318.870000", "131319.870000", "131320.870000", "131321.870000", "131322.870000", "131323.870000", "131324.870000", "131325.870000", "131326.870000", "131327.870000", "131328.870000", "131329.870000", "131330.870000", "131331.870000", "131332.870000", "131333.870000", "131334.870000", "131335.870000", "131336.870000", "131337.870000", "131338.870000", "131339.870000", "131340.870000", "131341.870000", "131342.870000", "131343.870000", "131344.870000", "131345.870000", "131346.870000", "131347.870000", "131348.870000", "131349.870000", "131350.870000", "131351.870000", "131352.870000", "131353.870000", "131354.870000", "131355.870000", "131356.870000", "131357.870000", "131358.870000", "131359.870000", "131400.870000", "131401.870000", "131402.870000", "131403.870000", "131404.870000", "131405.870000", "131406.870000", "131407.870000", "131408.870000", "131409.870000", "131410.870000", "131411.870000", "131412.870000", "131413.870000", "131414.870000", "131415.870000", "131416.870000", "131417.870000", "131418.870000", "131419.870000", "131420.870000", "131421.870000", "131422.870000", "131423.870000", "131424.870000", "131425.870000", "131426.870000", "131427.870000", "131428.870000", "131429.870000", "131430.870000", "131431.870000", "131432.870000", "131433.870000", "131434.870000", "131435.870000", "131436.870000", "131437.870000", "131438.870000", "131439.870000", "131440.870000", "131441.870000", "131442.870000", "131443.870000", "131444.870000", "131445.870000", "131446.870000", "131447.870000", "131448.870000", "131449.870000", "131450.870000", "131451.870000", "131452.870000", "131453.870000", "131454.870000", "131455.870000", "131456.870000", "131457.870000", "131458.870000", "131459.870000", "131500.870000", "131501.870000", "131502.870000", "131503.870000", "131504.870000", "131505.870000", "131506.870000", "131507.870000", "131508.870000", "131509.870000", "131510.870000", "131511.870000", "131512.870000", "131513.870000", "131514.870000", "131515.870000", "131516.870000", "131517.870000", "131518.870000", "131519.870000", "131520.870000", "131521.870000", "131522.870000", "131523.870000", "131524.870000", "131525.870000", "131526.870000", "131527.870000", "131528.870000", "131529.870000", "131530.870000", "131531.870000", "131532.870000", "131533.870000", "131534.870000", "131535.870000", "131536.870000", "131537.870000", "131538.870000", "131539.870000", "131540.870000", "131541.870000", "131542.870000", "131543.870000", "131544.870000", "131545.870000", "131546.870000", "131547.870000", "131548.870000", "131549.870000", "131550.870000", "131551.870000", "131552.870000", "131553.870000", "131554.870000", "131555.870000", "131556.870000", "131557.870000", "131558.870000", "131559.870000", "131600.870000", "131601.870000", "131602.870000", "131603.870000", "131604.870000", "131605.870000", "131606.870000", "131607.870000", "131608.870000", "131609.870000", "131610.870000", "131611.870000", "131612.870000", "131613.870000", "131614.870000", "131615.870000", "131616.870000", "131617.870000", "131618.870000", "131619.870000", "131620.870000", "131621.870000", "131622.870000", "131623.870000", "131624.870000", "131625.870000", "131626.870000", "131627.870000", "131628.870000", "131629.870000", "131630.870000", "131631.870000", "131632.870000", "131633.870000", "131634.870000", "131635.870000", "131636.870000", "131637.870000", "131638.870000", "131639.870000", "131640.870000", "131641.870000", "131642.870000", "131643.870000", "131644.870000", "131645.870000", "131646.870000", "131647.870000", "131648.870000", "131649.870000", "131650.870000", "131651.870000", "131652.870000", "131653.870000", "131654.870000", "131655.870000", "131656.870000", "131657.870000", "131658.870000", "131659.870000", "131700.870000", "131701.870000", "131702.870000", "131703.870000", "131704.870000", "131705.870000", "131706.870000", "131707.870000", "131708.870000", "131709.870000", "131710.870000", "131711.870000", "131712.870000", "131713.870000", "131714.870000", "131715.870000", "131716.870000", "131717.870000", "131718.870000", "131719.870000", "131720.870000", "131721.870000", "131722.870000", "131723.870000", "131724.870000", "131725.870000", "131726.870000", "131727.870000", "131728.870000", "131729.870000"],
      "ContentTime": ["130837.509000", "130838.357000", "130839.341000", "130840.302000", "130841.310000", "130842.346000", "130843.318000", "130844.326000", "130845.375000", "130846.333000", "130847.336000", "130848.335000", "130849.347000", "130850.344000", "130851.349000", "130852.351000", "130853.308000", "130854.345000", "130855.313000", "130856.326000", "130857.404000", "130858.327000", "130859.338000", "130900.323000", "130901.313000", "130902.302000", "130903.324000", "130904.335000", "130905.326000", "130906.327000", "130907.348000", "130908.335000", "130909.342000", "130910.362000", "130911.334000", "130912.365000", "130913.346000", "130914.345000", "130915.338000", "130916.331000", "130917.324000", "130918.312000", "130919.353000", "130920.330000", "130921.347000", "130922.351000", "130923.315000", "130924.319000", "130925.344000", "130926.332000", "130927.348000", "130928.320000", "130929.320000", "130930.348000", "130931.316000", "130932.334000", "130933.333000", "130934.332000", "130935.331000", "130936.315000", "130937.335000", "130938.314000", "130939.321000", "130940.324000", "130941.331000", "130942.316000", "130943.331000", "130944.310000", "130945.346000", "130946.339000", "130947.378000", "130948.358000", "130949.344000", "130950.347000", "130951.341000", "130952.351000", "130953.305000", "130954.329000", "130955.352000", "130956.400000", "130957.422000", "130958.357000", "130959.313000", "131000.328000", "131001.389000", "131002.340000", "131003.337000", "131004.341000", "131005.398000", "131006.375000", "131007.339000", "131008.316000", "131009.341000", "131010.342000", "131011.294000", "131012.344000", "131013.311000", "131014.336000", "131015.321000", "131016.301000", "131017.316000", "131018.382000", "131019.370000", "131020.395000", "131021.332000", "131022.333000", "131023.338000", "131024.325000", "131025.326000", "131026.311000", "131027.323000", "131028.328000", "131029.341000", "131030.335000", "131031.332000", "131032.300000", "131033.311000", "131034.316000", "131035.334000", "131036.316000", "131037.342000", "131038.326000", "131039.330000", "131040.306000", "131041.343000", "131042.328000", "131043.310000", "131044.351000", "131045.335000", "131046.336000", "131047.334000", "131048.348000", "131049.372000", "131050.328000", "131051.333000", "131052.321000", "131053.334000", "131054.331000", "131055.317000", "131056.301000", "131057.293000", "131058.290000", "131059.323000", "131100.335000", "131101.341000", "131102.334000", "131103.295000", "131104.343000", "131105.323000", "131106.327000", "131107.334000", "131108.342000", "131109.322000", "131110.326000", "131111.324000", "131112.317000", "131113.322000", "131114.292000", "131115.362000", "131116.347000", "131117.355000", "131118.325000", "131119.299000", "131120.361000", "131121.355000", "131122.356000", "131123.336000", "131124.376000", "131125.336000", "131126.330000", "131127.330000", "131128.334000", "131129.323000", "131130.338000", "131131.326000", "131132.307000", "131133.340000", "131134.301000", "131135.327000", "131136.327000", "131137.321000", "131138.336000", "131139.341000", "131140.320000", "131141.308000", "131142.338000", "131143.310000", "131144.313000", "131145.333000", "131146.357000", "131147.334000", "131148.321000", "131149.332000", "131150.316000", "131151.329000", "131152.331000", "131153.338000", "131154.329000", "131155.324000", "131156.331000", "131157.328000", "131158.337000", "131159.373000", "131200.324000", "131201.373000", "131202.349000", "131203.318000", "131204.371000", "131205.323000", "131206.366000", "131207.328000", "131208.345000", "131209.303000", "131210.363000", "131211.329000", "131212.339000", "131213.323000", "131214.372000", "131215.352000", "131216.324000", "131217.338000", "131218.298000", "131219.327000", "131220.352000", "131221.324000", "131222.336000", "131223.344000", "131224.344000", "131225.379000", "131226.402000", "131227.341000", "131228.367000", "131229.338000", "131230.331000", "131231.330000", "131232.370000", "131233.359000", "131234.370000", "131235.329000", "131236.357000", "131237.316000", "131238.357000", "131239.312000", "131240.316000", "131241.327000", "131242.337000", "131243.330000", "131244.315000", "131245.349000", "131246.357000", "131247.339000", "131248.332000", "131249.335000", "131250.324000", "131251.332000", "131252.325000", "131253.334000", "131254.353000", "131255.354000", "131256.352000", "131257.321000", "131258.342000", "131259.315000", "131300.309000", "131301.329000", "131302.338000", "131303.342000", "131304.368000", "131305.331000", "131306.352000", "131307.327000", "131308.343000", "131309.368000", "131310.326000", "131311.331000", "131312.328000", "131313.373000", "131314.330000", "131315.332000", "131316.351000", "131317.334000", "131318.348000", "131319.375000", "131320.368000", "131321.323000", "131322.315000", "131323.347000", "131324.337000", "131325.332000", "131326.345000", "131327.366000", "131328.353000", "131329.347000", "131330.328000", "131331.347000", "131332.341000", "131333.355000", "131334.310000", "131335.337000", "131336.334000", "131337.332000", "131338.342000", "131339.326000", "131340.333000", "131341.325000", "131342.324000", "131343.324000", "131344.354000", "131345.326000", "131346.327000", "131347.358000", "131348.363000", "131349.344000", "131350.307000", "131351.338000", "131352.339000", "131353.317000", "131354.320000", "131355.327000", "131356.346000", "131357.347000", "131358.361000", "131359.392000", "131400.367000", "131401.324000", "131402.320000", "131403.319000", "131404.329000", "131405.317000", "131406.329000", "131407.345000", "131408.346000", "131409.334000", "131410.341000", "131411.335000", "131412.350000", "131413.346000", "131414.334000", "131415.329000", "131416.334000", "131417.324000", "131418.353000", "131419.318000", "131420.320000", "131421.367000", "131422.321000", "131423.304000", "131424.322000", "131425.339000", "131426.334000", "131427.330000", "131428.321000", "131429.319000", "131430.306000", "131431.300000", "131432.315000", "131433.351000", "131434.323000", "131435.359000", "131436.322000", "131437.330000", "131438.303000", "131439.344000", "131440.308000", "131441.335000", "131442.334000", "131443.354000", "131444.357000", "131445.339000", "131446.371000", "131447.376000", "131448.349000", "131449.328000", "131450.342000", "131451.319000", "131452.357000", "131453.328000", "131454.332000", "131455.369000", "131456.334000", "131457.316000", "131458.318000", "131459.336000", "131500.314000", "131501.347000", "131502.319000", "131503.343000", "131504.333000", "131505.341000", "131506.330000", "131507.329000", "131508.317000", "131509.361000", "131510.298000", "131511.362000", "131512.330000", "131513.317000", "131514.337000", "131515.332000", "131516.306000", "131517.329000", "131518.409000", "131519.340000", "131520.331000", "131521.360000", "131522.351000", "131523.334000", "131524.335000", "131525.356000", "131526.308000", "131527.323000", "131528.374000", "131529.328000", "131530.352000", "131531.324000", "131532.321000", "131533.328000", "131534.324000", "131535.331000", "131536.339000", "131537.310000", "131538.327000", "131539.323000", "131540.337000", "131541.322000", "131542.372000", "131543.347000", "131544.340000", "131545.321000", "131546.353000", "131547.347000", "131548.333000", "131549.329000", "131550.327000", "131551.325000", "131552.316000", "131553.330000", "131554.342000", "131555.323000", "131556.345000", "131557.322000", "131558.315000", "131559.308000", "131600.333000", "131601.364000", "131602.348000", "131603.330000", "131604.385000", "131605.341000", "131606.333000", "131607.355000", "131608.370000", "131609.344000", "131610.340000", "131611.332000", "131612.362000", "131613.377000", "131614.321000", "131615.328000", "131616.334000", "131617.327000", "131618.300000", "131619.347000", "131620.326000", "131621.408000", "131622.321000", "131623.316000", "131624.357000", "131625.383000", "131626.360000", "131627.372000", "131628.323000", "131629.336000", "131630.363000", "131631.297000", "131632.331000", "131633.344000", "131634.315000", "131635.355000", "131636.373000", "131637.361000", "131638.315000", "131639.350000", "131640.318000", "131641.327000", "131642.311000", "131643.354000", "131644.286000", "131645.325000", "131646.365000", "131647.335000", "131648.318000", "131649.327000", "131650.314000", "131651.305000", "131652.322000", "131653.315000", "131654.389000", "131655.357000", "131656.452000", "131657.385000", "131658.373000", "131659.363000", "131700.366000", "131701.376000", "131702.348000", "131703.359000", "131704.351000", "131705.356000", "131706.382000", "131707.384000", "131708.373000", "131709.366000", "131710.367000", "131711.377000", "131712.385000", "131713.405000", "131714.392000", "131715.380000", "131716.383000", "131717.368000", "131718.364000", "131719.358000", "131720.370000", "131721.414000", "131722.390000", "131723.376000", "131724.389000", "131725.387000", "131726.391000", "131727.378000", "131728.404000", "131729.370000", "131730.335000", "131731.343000"],
