{
  "AcquisitionMatrixPE": 96,
  "AcquisitionNumber": 1,
  "AcquisitionTime": "16:26:7.197500",
  "BandwidthPerPixelPhaseEncode": 18.939,
  "BaseResolution": 96,
  "BodyPartExamined": "BRAIN",
  "ConsistencyInfo": "N4_VE11C_LATEST_20160120",
  "ConversionSoftware": "dcm2niix",
  "ConversionSoftwareVersion": "v1.0.20190902",
  "DerivedVendorReportedEchoSpacing": 0.000550011,
  "DeviceSerialNumber": "66112",
  "DwellTime": 2.2e-06,
  "EchoTime": 0.033,
  "EchoTrainLength": 96,
  "EffectiveEchoSpacing": 0.000550011,
  "FlipAngle": 59,
  "ImageOrientationPatientDICOM": [0.999257, 0.0354107, -0.0151983, -0.0362918, 0.9974, -0.0622551],
  "ImageType": [
    "ORIGINAL",
    "PRIMARY",
    "FMRI",
    "NONE",
    "ND",
    "NORM",
    "MOSAIC"
],
  "ImagingFrequency": 123.252,
  "InPlanePhaseEncodingDirectionDICOM": "COL",
  "InstitutionAddress": "Maynard_3_Hanover_NH_US_03755",
  "InstitutionName": "Dartmouth_College_-_PBS",
  "InstitutionalDepartmentName": "Department",
  "MRAcquisitionType": "2D",
  "MagneticFieldStrength": 3,
  "Manufacturer": "Siemens",
  "ManufacturersModelName": "Prisma",
  "Modality": "MR",
  "MultibandAccelerationFactor": 4,
  "PartialFourier": 1,
  "PatientPosition": "HFS",
  "PercentPhaseFOV": 100,
  "PhaseEncodingDirection": "j-",
  "PhaseEncodingSteps": 96,
  "PhaseResolution": 1,
  "PixelBandwidth": 2365,
  "ProcedureStepDescription": "Gobbini_Matteo_1037_budapest",
  "ProtocolName": "func_run-01_task-movie",
  "PulseSequenceDetails": "%SiemensSeq%_ep2d_bold",
  "ReceiveCoilActiveElements": "HEA;HEP",
  "ReceiveCoilName": "Head_32",
  "ReconMatrixPE": 96,
  "RefLinesPE": 12,
  "RepetitionTime": 1,
  "SAR": 0.0484356,
  "ScanOptions": "FS",
  "ScanningSequence": "EP",
  "SequenceName": "_epfid2d1_96",
  "SequenceVariant": "SK",
  "SeriesDescription": "func_run-01_task-movie",
  "SeriesNumber": 8,
  "ShimSetting": [4148, -7728, -7312, 704, -59, -78, 1, 97],
  "SliceThickness": 2.5,
  "SliceTiming": [0.735, 0, 0.49, 0.0825, 0.5725, 0.1625, 0.6525, 0.3275, 0.815, 0.4075, 0.8975, 0.245, 0.735, 0, 0.49, 0.0825, 0.5725, 0.1625, 0.6525, 0.3275, 0.815, 0.4075, 0.8975, 0.245, 0.735, 0, 0.49, 0.0825, 0.5725, 0.1625, 0.6525, 0.3275, 0.815, 0.4075, 0.8975, 0.245, 0.735, 0, 0.49, 0.0825, 0.5725, 0.1625, 0.6525, 0.3275, 0.815, 0.4075, 0.8975, 0.245],
  "SoftwareVersions": "syngo_MR_E11",
  "SpacingBetweenSlices": 2.5,
  "StationName": "AWP66112",
  "TaskName": "movie",
  "TotalReadoutTime": 0.0522511,
  "TxRefAmp": 230.61,
  "dcmmeta_affine": [
    [-2.498143196105957, -0.09072950482368469, -0.03238581866025925, 123.7895736694336],
    [-0.08852683007717133, 2.4935004711151123, -0.1569010615348816, -102.00296783447266],
    [-0.037995845079422, 0.155637726187706, 2.494861364364624, -74.94287872314453],
    [0.0, 0.0, 0.0, 1.0]
],
  "dcmmeta_reorient_transform": [
    [0.0, -1.0, 0.0, 95.0],
    [1.0, 0.0, 0.0, 0.0],
    [0.0, 0.0, 1.0, 0.0],
    [0.0, 0.0, 0.0, 1.0]
],
  "dcmmeta_shape": [96, 96, 48, 598],
  "dcmmeta_slice_dim": 2,
  "dcmmeta_version": 0.6,
  "global": {
    "const": {
      "AccessionNumber": "A001265",
      "AcquisitionMatrix": [96, 0, 0, 96],
      "AngioFlag": "N",
      "BitsAllocated": 16,
      "BitsStored": 12,
      "BodyPartExamined": "BRAIN",
      "Columns": 672,
      "EchoNumbers": 1,
      "EchoTime": 33.0,
      "EchoTrainLength": 96,
      "FlipAngle": 59.0,
      "HighBit": 11,
      "ImageOrientationPatient": [0.99925726941775, 0.03541073320341, -0.0151983383888, -0.036291802201, 0.99740022511091, -0.0622550884804],
      "ImagePositionPatient": [-808.50540345855, -878.50347717031, -4.3908273625077],
      "ImageType": [
        "ORIGINAL",
        "PRIMARY",
        "FMRI",
        "NONE",
        "ND",
        "NORM",
        "MOSAIC"
],
      "ImagedNucleus": "1H",
      "ImagingFrequency": 123.252301,
      "InPlanePhaseEncodingDirection": "COL",
      "MRAcquisitionType": "2D",
      "MagneticFieldStrength": 3.0,
      "Manufacturer": "SIEMENS",
      "ManufacturerModelName": "Prisma",
      "Modality": "MR",
      "NumberOfAverages": 1.0,
      "NumberOfPhaseEncodingSteps": 96,
      "PercentPhaseFieldOfView": 100.0,
      "PercentSampling": 100.0,
      "PerformedProcedureStepStartTime": "160714.090000",
      "PhotometricInterpretation": "MONOCHROME2",
      "PixelBandwidth": 2365.0,
      "PixelRepresentation": 0,
      "PixelSpacing": [2.5, 2.5],
      "ProtocolName": "func_run-01_task-movie",
      "RepetitionTime": 1000.0,
      "Rows": 672,
      "SAR": 0.04843560081693,
      "SamplesPerPixel": 1,
      "ScanOptions": "FS",
      "ScanningSequence": "EP",
      "SequenceName": "*epfid2d1_96",
      "SequenceVariant": "SK",
      "SeriesDescription": "func_run-01_task-movie",
      "SeriesNumber": 8,
      "SeriesTime": "162608.932000",
      "SliceLocation": -69.99069766603,
      "SliceThickness": 2.5,
      "SmallestImagePixelValue": 0,
      "SoftwareVersions": "syngo MR E11",
      "SpacingBetweenSlices": 2.4999999962202,
      "SpecificCharacterSet": "ISO_IR 100",
      "StudyID": "2",
      "StudyTime": "160714.043000",
      "TransmitCoilName": "Body",
      "VariableFlipAngleFlag": "N",
      "WindowCenterWidthExplanation": "Algo1",
      "dBdt": 0.0},
    "slices": {}
  },
  "time": {
    "samples": {
      "AcquisitionNumber": [1, 2, 3, 4, 5, 6, 7, 8, 9, 10, 11, 12, 13, 14, 15, 16, 17, 18, 19, 20, 21, 22, 23, 24, 25, 26, 27, 28, 29, 30, 31, 32, 33, 34, 35, 36, 37, 38, 39, 40, 41, 42, 43, 44, 45, 46, 47, 48, 49, 50, 51, 52, 53, 54, 55, 56, 57, 58, 59, 60, 61, 62, 63, 64, 65, 66, 67, 68, 69, 70, 71, 72, 73, 74, 75, 76, 77, 78, 79, 80, 81, 82, 83, 84, 85, 86, 87, 88, 89, 90, 91, 92, 93, 94, 95, 96, 97, 98, 99, 100, 101, 102, 103, 104, 105, 106, 107, 108, 109, 110, 111, 112, 113, 114, 115, 116, 117, 118, 119, 120, 121, 122, 123, 124, 125, 126, 127, 128, 129, 130, 131, 132, 133, 134, 135, 136, 137, 138, 139, 140, 141, 142, 143, 144, 145, 146, 147, 148, 149, 150, 151, 152, 153, 154, 155, 156, 157, 158, 159, 160, 161, 162, 163, 164, 165, 166, 167, 168, 169, 170, 171, 172, 173, 174, 175, 176, 177, 178, 179, 180, 181, 182, 183, 184, 185, 186, 187, 188, 189, 190, 191, 192, 193, 194, 195, 196, 197, 198, 199, 200, 201, 202, 203, 204, 205, 206, 207, 208, 209, 210, 211, 212, 213, 214, 215, 216, 217, 218, 219, 220, 221, 222, 223, 224, 225, 226, 227, 228, 229, 230, 231, 232, 233, 234, 235, 236, 237, 238, 239, 240, 241, 242, 243, 244, 245, 246, 247, 248, 249, 250, 251, 252, 253, 254, 255, 256, 257, 258, 259, 260, 261, 262, 263, 264, 265, 266, 267, 268, 269, 270, 271, 272, 273, 274, 275, 276, 277, 278, 279, 280, 281, 282, 283, 284, 285, 286, 287, 288, 289, 290, 291, 292, 293, 294, 295, 296, 297, 298, 299, 300, 301, 302, 303, 304, 305, 306, 307, 308, 309, 310, 311, 312, 313, 314, 315, 316, 317, 318, 319, 320, 321, 322, 323, 324, 325, 326, 327, 328, 329, 330, 331, 332, 333, 334, 335, 336, 337, 338, 339, 340, 341, 342, 343, 344, 345, 346, 347, 348, 349, 350, 351, 352, 353, 354, 355, 356, 357, 358, 359, 360, 361, 362, 363, 364, 365, 366, 367, 368, 369, 370, 371, 372, 373, 374, 375, 376, 377, 378, 379, 380, 381, 382, 383, 384, 385, 386, 387, 388, 389, 390, 391, 392, 393, 394, 395, 396, 397, 398, 399, 400, 401, 402, 403, 404, 405, 406, 407, 408, 409, 410, 411, 412, 413, 414, 415, 416, 417, 418, 419, 420, 421, 422, 423, 424, 425, 426, 427, 428, 429, 430, 431, 432, 433, 434, 435, 436, 437, 438, 439, 440, 441, 442, 443, 444, 445, 446, 447, 448, 449, 450, 451, 452, 453, 454, 455, 456, 457, 458, 459, 460, 461, 462, 463, 464, 465, 466, 467, 468, 469, 470, 471, 472, 473, 474, 475, 476, 477, 478, 479, 480, 481, 482, 483, 484, 485, 486, 487, 488, 489, 490, 491, 492, 493, 494, 495, 496, 497, 498, 499, 500, 501, 502, 503, 504, 505, 506, 507, 508, 509, 510, 511, 512, 513, 514, 515, 516, 517, 518, 519, 520, 521, 522, 523, 524, 525, 526, 527, 528, 529, 530, 531, 532, 533, 534, 535, 536, 537, 538, 539, 540, 541, 542, 543, 544, 545, 546, 547, 548, 549, 550, 551, 552, 553, 554, 555, 556, 557, 558, 559, 560, 561, 562, 563, 564, 565, 566, 567, 568, 569, 570, 571, 572, 573, 574, 575, 576, 577, 578, 579, 580, 581, 582, 583, 584, 585, 586, 587, 588, 589, 590, 591, 592, 593, 594, 595, 596, 597, 598],
      "AcquisitionTime": ["162607.197500", "162608.197500", "162609.197500", "162610.197500", "162611.197500", "162612.197500", "162613.197500", "162614.197500", "162615.197500", "162616.197500", "162617.197500", "162618.197500", "162619.197500", "162620.197500", "162621.197500", "162622.197500", "162623.197500", "162624.197500", "162625.197500", "162626.197500", "162627.197500", "162628.197500", "162629.197500", "162630.197500", "162631.197500", "162632.197500", "162633.197500", "162634.197500", "162635.197500", "162636.197500", "162637.197500", "162638.197500", "162639.197500", "162640.197500", "162641.197500", "162642.197500", "162643.197500", "162644.197500", "162645.197500", "162646.197500", "162647.197500", "162648.197500", "162649.197500", "162650.197500", "162651.197500", "162652.197500", "162653.197500", "162654.197500", "162655.197500", "162656.197500", "162657.197500", "162658.197500", "162659.197500", "162700.197500", "162701.197500", "162702.197500", "162703.197500", "162704.197500", "162705.197500", "162706.197500", "162707.197500", "162708.197500", "162709.197500", "162710.197500", "162711.197500", "162712.197500", "162713.197500", "162714.197500", "162715.197500", "162716.197500", "162717.197500", "162718.197500", "162719.197500", "162720.197500", "162721.197500", "162722.197500", "162723.197500", "162724.197500", "162725.197500", "162726.197500", "162727.197500", "162728.197500", "162729.197500", "162730.197500", "162731.197500", "162732.197500", "162733.197500", "162734.197500", "162735.197500", "162736.197500", "162737.197500", "162738.197500", "162739.197500", "162740.197500", "162741.197500", "162742.197500", "162743.197500", "162744.197500", "162745.197500", "162746.197500", "162747.197500", "162748.197500", "162749.197500", "162750.197500", "162751.197500", "162752.197500", "162753.197500", "162754.197500", "162755.197500", "162756.197500", "162757.197500", "162758.197500", "162759.197500", "162800.197500", "162801.197500", "162802.197500", "162803.197500", "162804.197500", "162805.197500", "162806.197500", "162807.197500", "162808.197500", "162809.197500", "162810.197500", "162811.197500", "162812.197500", "162813.197500", "162814.197500", "162815.197500", "162816.197500", "162817.197500", "162818.197500", "162819.197500", "162820.197500", "162821.197500", "162822.197500", "162823.197500", "162824.197500", "162825.197500", "162826.197500", "162827.197500", "162828.197500", "162829.197500", "162830.197500", "162831.197500", "162832.197500", "162833.197500", "162834.197500", "162835.197500", "162836.197500", "162837.197500", "162838.197500", "162839.197500", "162840.197500", "162841.197500", "162842.197500", "162843.197500", "162844.197500", "162845.197500", "162846.197500", "162847.197500", "162848.197500", "162849.197500", "162850.197500", "162851.197500", "162852.197500", "162853.197500", "162854.197500", "162855.197500", "162856.197500", "162857.197500", "162858.197500", "162859.197500", "162900.197500", "162901.197500", "162902.197500", "162903.197500", "162904.197500", "162905.197500", "162906.197500", "162907.197500", "162908.197500", "162909.197500", "162910.197500", "162911.197500", "162912.197500", "162913.197500", "162914.197500", "162915.197500", "162916.197500", "162917.197500", "162918.197500", "162919.197500", "162920.197500", "162921.197500", "162922.197500", "162923.197500", "162924.197500", "162925.197500", "162926.197500", "162927.197500", "162928.197500", "162929.197500", "162930.197500", "162931.197500", "162932.197500", "162933.197500", "162934.197500", "162935.197500", "162936.197500", "162937.197500", "162938.197500", "162939.197500", "162940.197500", "162941.197500", "162942.197500", "162943.197500", "162944.197500", "162945.197500", "162946.197500", "162947.197500", "162948.197500", "162949.197500", "162950.197500", "162951.197500", "162952.197500", "162953.197500", "162954.197500", "162955.197500", "162956.197500", "162957.197500", "162958.197500", "162959.197500", "163000.197500", "163001.197500", "163002.197500", "163003.197500", "163004.197500", "163005.197500", "163006.197500", "163007.197500", "163008.197500", "163009.197500", "163010.197500", "163011.197500", "163012.197500", "163013.197500", "163014.197500", "163015.197500", "163016.197500", "163017.197500", "163018.197500", "163019.197500", "163020.197500", "163021.197500", "163022.197500", "163023.197500", "163024.197500", "163025.197500", "163026.197500", "163027.197500", "163028.197500", "163029.197500", "163030.197500", "163031.197500", "163032.197500", "163033.197500", "163034.197500", "163035.197500", "163036.197500", "163037.197500", "163038.197500", "163039.197500", "163040.197500", "163041.197500", "163042.197500", "163043.197500", "163044.197500", "163045.197500", "163046.197500", "163047.197500", "163048.197500", "163049.197500", "163050.197500", "163051.197500", "163052.197500", "163053.197500", "163054.197500", "163055.197500", "163056.197500", "163057.197500", "163058.197500", "163059.197500", "163100.197500", "163101.197500", "163102.197500", "163103.197500", "163104.197500", "163105.197500", "163106.197500", "163107.197500", "163108.197500", "163109.197500", "163110.197500", "163111.197500", "163112.197500", "163113.197500", "163114.197500", "163115.197500", "163116.197500", "163117.197500", "163118.197500", "163119.197500", "163120.197500", "163121.197500", "163122.197500", "163123.197500", "163124.197500", "163125.197500", "163126.197500", "163127.197500", "163128.197500", "163129.197500", "163130.197500", "163131.197500", "163132.197500", "163133.197500", "163134.197500", "163135.197500", "163136.197500", "163137.197500", "163138.197500", "163139.197500", "163140.197500", "163141.197500", "163142.197500", "163143.197500", "163144.197500", "163145.197500", "163146.197500", "163147.197500", "163148.197500", "163149.197500", "163150.197500", "163151.197500", "163152.197500", "163153.197500", "163154.197500", "163155.197500", "163156.197500", "163157.197500", "163158.197500", "163159.197500", "163200.197500", "163201.197500", "163202.197500", "163203.197500", "163204.197500", "163205.197500", "163206.197500", "163207.197500", "163208.197500", "163209.197500", "163210.197500", "163211.197500", "163212.197500", "163213.197500", "163214.197500", "163215.197500", "163216.197500", "163217.197500", "163218.197500", "163219.197500", "163220.197500", "163221.197500", "163222.197500", "163223.197500", "163224.197500", "163225.197500", "163226.197500", "163227.197500", "163228.197500", "163229.197500", "163230.197500", "163231.197500", "163232.197500", "163233.197500", "163234.197500", "163235.197500", "163236.197500", "163237.197500", "163238.197500", "163239.197500", "163240.197500", "163241.197500", "163242.197500", "163243.197500", "163244.197500", "163245.197500", "163246.197500", "163247.197500", "163248.197500", "163249.197500", "163250.197500", "163251.197500", "163252.197500", "163253.197500", "163254.197500", "163255.197500", "163256.197500", "163257.197500", "163258.197500", "163259.197500", "163300.197500", "163301.197500", "163302.197500", "163303.197500", "163304.197500", "163305.197500", "163306.197500", "163307.197500", "163308.197500", "163309.197500", "163310.197500", "163311.197500", "163312.197500", "163313.197500", "163314.197500", "163315.197500", "163316.197500", "163317.197500", "163318.197500", "163319.197500", "163320.197500", "163321.197500", "163322.197500", "163323.197500", "163324.197500", "163325.197500", "163326.197500", "163327.197500", "163328.197500", "163329.197500", "163330.197500", "163331.197500", "163332.197500", "163333.197500", "163334.197500", "163335.197500", "163336.197500", "163337.197500", "163338.197500", "163339.197500", "163340.197500", "163341.197500", "163342.197500", "163343.197500", "163344.197500", "163345.197500", "163346.197500", "163347.197500", "163348.197500", "163349.197500", "163350.197500", "163351.197500", "163352.197500", "163353.197500", "163354.197500", "163355.197500", "163356.197500", "163357.197500", "163358.197500", "163359.197500", "163400.197500", "163401.197500", "163402.197500", "163403.197500", "163404.197500", "163405.197500", "163406.197500", "163407.197500", "163408.197500", "163409.197500", "163410.197500", "163411.197500", "163412.197500", "163413.197500", "163414.197500", "163415.197500", "163416.197500", "163417.197500", "163418.197500", "163419.197500", "163420.197500", "163421.197500", "163422.197500", "163423.197500", "163424.197500", "163425.197500", "163426.197500", "163427.197500", "163428.197500", "163429.197500", "163430.197500", "163431.197500", "163432.197500", "163433.197500", "163434.197500", "163435.197500", "163436.197500", "163437.197500", "163438.197500", "163439.197500", "163440.197500", "163441.197500", "163442.197500", "163443.197500", "163444.197500", "163445.197500", "163446.197500", "163447.197500", "163448.197500", "163449.197500", "163450.197500", "163451.197500", "163452.197500", "163453.197500", "163454.197500", "163455.197500", "163456.197500", "163457.197500", "163458.197500", "163459.197500", "163500.197500", "163501.197500", "163502.197500", "163503.197500", "163504.197500", "163505.197500", "163506.197500", "163507.197500", "163508.197500", "163509.197500", "163510.197500", "163511.197500", "163512.197500", "163513.197500", "163514.197500", "163515.197500", "163516.197500", "163517.197500", "163518.197500", "163519.197500", "163520.197500", "163521.197500", "163522.197500", "163523.197500", "163524.197500", "163525.197500", "163526.197500", "163527.197500", "163528.197500", "163529.197500", "163530.197500", "163531.197500", "163532.197500", "163533.197500", "163534.197500", "163535.197500", "163536.197500", "163537.197500", "163538.197500", "163539.197500", "163540.197500", "163541.197500", "163542.197500", "163543.197500", "163544.197500", "163545.197500", "163546.197500", "163547.197500", "163548.197500", "163549.197500", "163550.197500", "163551.197500", "163552.197500", "163553.197500", "163554.197500", "163555.197500", "163556.197500", "163557.197500", "163558.197500", "163559.197500", "163600.197500", "163601.197500", "163602.197500", "163603.197500", "163604.197500"],
      "ContentTime": ["162608.936000", "162609.780000", "162610.819000", "162611.822000", "162612.787000", "162613.794000", "162614.775000", "162615.788000", "162616.754000", "162617.769000", "162618.769000", "162619.806000", "162620.770000", "162621.777000", "162622.788000", "162623.821000", "162624.788000", "162625.786000", "162626.785000", "162627.791000", "162628.780000", "162629.748000", "162630.788000", "162631.793000", "162632.830000", "162633.774000", "162634.756000", "162635.768000", "162636.774000", "162637.786000", "162638.773000", "162639.793000", "162640.764000", "162641.762000", "162642.800000", "162643.767000", "162644.778000", "162645.755000", "162646.791000", "162647.769000", "162648.827000", "162649.822000", "162650.795000", "162651.757000", "162652.784000", "162653.783000", "162654.793000", "162655.751000", "162656.761000", "162657.824000", "162658.769000", "162659.773000", "162700.762000", "162701.767000", "162702.794000", "162703.767000", "162704.771000", "162705.784000", "162706.786000", "162707.781000", "162708.768000", "162709.768000", "162710.776000", "162711.781000", "162712.835000", "162713.795000", "162714.772000", "162715.788000", "162716.789000", "162717.826000", "162718.838000", "162719.799000", "162720.820000", "162721.763000", "162722.755000", "162723.816000", "162724.775000", "162725.778000", "162726.779000", "162727.769000", "162728.787000", "162729.768000", "162730.772000", "162731.802000", "162732.773000", "162733.811000", "162734.765000", "162735.832000", "162736.825000", "162737.784000", "162738.788000", "162739.767000", "162740.801000", "162741.763000", "162742.782000", "162743.785000", "162744.752000", "162745.769000", "162746.773000", "162747.791000", "162748.801000", "162749.795000", "162750.774000", "162751.777000", "162752.784000", "162753.809000", "162754.762000", "162755.836000", "162756.786000", "162757.789000", "162758.789000", "162759.816000", "162800.768000", "162801.795000", "162802.786000", "162803.825000", "162804.771000", "162805.743000", "162806.753000", "162807.792000", "162808.771000", "162809.823000", "162810.787000", "162811.835000", "162812.786000", "162813.809000", "162814.817000", "162815.841000", "162816.772000", "162817.768000", "162818.799000", "162819.785000", "162820.821000", "162821.811000", "162822.777000", "162823.790000", "162824.776000", "162825.922000", "162826.762000", "162827.786000", "162828.785000", "162829.771000", "162830.775000", "162831.766000", "162832.780000", "162833.780000", "162834.765000", "162835.825000", "162836.805000", "162837.784000", "162838.787000", "162839.768000", "162840.801000", "162841.789000", "162842.800000", "162843.788000", "162844.753000", "162845.760000", "162846.783000", "162847.775000", "162848.794000", "162849.856000", "162850.795000", "162851.797000", "162852.772000", "162853.796000", "162854.791000", "162855.817000", "162856.770000", "162857.736000", "162858.770000", "162859.829000", "162900.794000", "162901.773000", "162902.775000", "162903.775000", "162904.809000", "162905.834000", "162906.782000", "162907.829000", "162908.814000", "162909.896000", "162910.832000", "162911.807000", "162912.781000", "162913.759000", "162914.858000", "162915.789000", "162916.808000", "162917.783000", "162918.785000", "162919.847000", "162920.786000", "162921.792000", "162922.764000", "162923.782000", "162924.855000", "162925.783000", "162926.785000", "162927.787000", "162928.776000", "162929.769000", "162930.806000", "162931.772000", "162932.797000", "162933.787000", "162934.797000", "162935.804000", "162936.768000", "162937.746000", "162938.778000", "162939.778000", "162940.777000", "162941.778000", "162942.788000", "162943.775000", "162944.797000", "162945.754000", "162946.794000", "162947.790000", "162948.773000", "162949.773000", "162950.845000", "162951.794000", "162952.803000", "162953.752000", "162954.780000", "162955.858000", "162956.813000", "162957.821000", "162958.809000", "162959.846000", "163000.814000", "163001.824000", "163002.753000", "163003.836000", "163004.806000", "163005.787000", "163006.776000", "163007.858000", "163008.816000", "163009.789000", "163010.781000", "163011.784000", "163012.788000", "163013.782000", "163014.804000", "163015.792000", "163016.804000", "163017.839000", "163018.776000", "163019.814000", "163020.759000", "163021.822000", "163022.794000", "163023.795000", "163024.839000", "163025.795000", "163026.783000", "163027.827000", "163028.780000", "163029.775000", "163030.784000", "163031.819000", "163032.796000", "163033.862000", "163034.775000", "163035.837000", "163036.765000", "163037.759000", "163038.826000", "163039.826000", "163040.785000", "163041.838000", "163042.785000", "163043.775000", "163044.790000", "163045.813000", "163046.784000", "163047.778000", "163048.777000", "163049.768000", "163050.791000", "163051.784000", "163052.809000", "163054.013000", "163054.788000", "163055.771000", "163056.774000", "163057.807000", "163058.804000", "163059.760000", "163100.752000", "163101.832000", "163102.778000", "163103.776000", "163104.825000", "163105.768000", "163106.770000", "163107.819000", "163108.790000", "163109.780000", "163110.775000", "163111.846000", "163112.800000", "163113.789000", "163114.806000", "163115.781000", "163116.829000", "163117.814000", "163118.816000", "163119.815000", "163120.847000", "163121.827000", "163122.808000", "163123.834000", "163124.789000", "163125.797000", "163126.763000", "163127.782000", "163128.760000", "163129.774000", "163130.809000", "163131.767000", "163132.782000", "163133.815000", "163134.775000", "163135.789000", "163136.805000", "163137.802000", "163138.760000", "163139.756000", "163140.758000", "163141.747000", "163142.754000", "163143.821000", "163144.762000", "163145.792000", "163146.769000", "163147.776000", "163148.828000", "163149.833000", "163150.792000", "163151.812000", "163152.776000", "163153.777000", "163154.796000", "163155.786000", "163156.782000", "163157.769000", "163158.758000", "163159.770000", "163200.768000", "163201.770000", "163202.777000", "163203.769000", "163204.799000", "163205.788000", "163206.781000", "163207.782000", "163208.771000", "163209.838000", "163210.795000", "163211.806000", "163212.793000", "163213.786000", "163214.783000", "163215.848000", "163216.780000", "163217.775000", "163218.779000", "163219.767000", "163220.792000", "163221.860000", "163222.790000", "163223.774000", "163224.782000", "163225.779000", "163226.766000", "163227.774000", "163228.781000", "163229.755000", "163230.791000", "163231.869000", "163232.778000", "163233.799000", "163234.818000", "163235.788000", "163236.754000", "163237.751000", "163238.778000", "163239.757000", "163240.783000", "163241.776000", "163242.767000", "163243.781000", "163244.775000", "163245.779000", "163246.805000", "163247.781000", "163248.754000", "163249.839000", "163250.785000", "163251.810000", "163252.763000", "163253.782000", "163254.798000", "163255.775000", "163256.771000", "163257.765000", "163258.766000", "163259.762000", "163300.794000", "163301.783000", "163302.805000", "163303.784000", "163304.776000", "163305.775000", "163306.763000", "163307.759000", "163308.786000", "163309.765000", "163310.789000", "163311.849000", "163312.796000", "163313.768000", "163314.779000", "163315.793000", "163316.787000", "163317.782000", "163318.791000", "163319.830000", "163320.824000", "163321.837000", "163322.807000", "163323.765000", "163324.790000", "163325.769000", "163326.789000", "163327.791000", "163328.781000", "163329.785000", "163330.777000", "163331.818000", "163332.828000", "163333.819000", "163334.811000", "163335.840000", "163336.799000", "163337.786000", "163338.816000", "163339.794000", "163340.785000", "163341.771000", "163342.820000", "163343.750000", "163344.789000", "163345.788000", "163346.779000", "163347.766000", "163348.859000", "163349.830000", "163350.796000", "163351.782000", "163352.784000", "163353.865000", "163354.817000", "163355.768000", "163356.790000", "163357.766000", "163358.778000", "163359.782000", "163400.793000", "163401.769000", "163402.777000", "163403.796000", "163404.791000", "163405.781000", "163406.782000", "163407.802000", "163408.792000", "163409.783000", "163410.873000", "163411.830000", "163412.791000", "163413.750000", "163414.757000", "163415.740000", "163416.779000", "163417.785000", "163418.777000", "163419.778000", "163420.783000", "163421.767000", "163422.772000", "163423.780000", "163424.789000", "163425.772000", "163426.763000", "163427.772000", "163428.802000", "163429.812000", "163430.763000", "163431.770000", "163432.774000", "163433.818000", "163434.790000", "163435.801000", "163436.790000", "163437.800000", "163438.853000", "163439.789000", "163440.775000", "163441.772000", "163442.781000", "163443.781000", "163444.772000", "163445.780000", "163446.863000", "163447.816000", "163448.770000", "163449.777000", "163450.768000", "163451.798000", "163452.785000", "163453.756000", "163454.782000", "163455.798000", "163456.786000", "163457.776000", "163458.781000", "163459.760000", "163500.775000", "163501.780000", "163502.788000", "163503.781000", "163504.781000", "163505.766000", "163506.867000", "163507.767000", "163508.800000", "163509.775000", "163510.762000", "163511.792000", "163512.773000", "163513.785000", "163514.767000", "163515.764000", "163516.777000", "163517.772000", "163518.775000", "163519.766000", "163520.775000", "163521.775000", "163522.779000", "163523.770000", "163524.787000", "163525.765000", "163526.756000", "163527.781000", "163528.762000", "163529.761000", "163530.766000", "163531.841000", "163532.822000", "163533.816000", "163534.778000", "163535.744000", "163536.776000", "163537.861000", "163538.773000", "163539.805000", "163540.862000", "163541.754000", "163542.757000", "163543.762000", "163544.784000", "163545.772000", "163546.786000", "163547.766000", "163548.788000", "163549.807000", "163550.774000", "163551.788000", "163552.780000", "163553.772000", "163554.770000", "163555.771000", "163556.774000", "163557.782000", "163558.781000", "163559.776000", "163600.841000", "163601.787000", "163602.829000", "163603.772000", "163604.863000", "163605.839000"],
