{
  "AcquisitionMatrixPE": 96,
  "AcquisitionNumber": 1,
  "AcquisitionTime": "16:55:22.942500",
  "BandwidthPerPixelPhaseEncode": 18.939,
  "BaseResolution": 96,
  "BodyPartExamined": "BRAIN",
  "ConsistencyInfo": "N4_VE11C_LATEST_20160120",
  "ConversionSoftware": "dcm2niix",
  "ConversionSoftwareVersion": "v1.0.20190902",
  "DerivedVendorReportedEchoSpacing": 0.000550011,
  "DeviceSerialNumber": "66112",
  "DwellTime": 2.2e-06,
  "EchoTime": 0.033,
  "EchoTrainLength": 96,
  "EffectiveEchoSpacing": 0.000550011,
  "FlipAngle": 59,
  "ImageOrientationPatientDICOM": [0.999257, 0.0354107, -0.0151983, -0.0362918, 0.9974, -0.0622551],
  "ImageType": [
    "ORIGINAL",
    "PRIMARY",
    "FMRI",
    "NONE",
    "ND",
    "NORM",
    "MOSAIC"
],
  "ImagingFrequency": 123.252,
  "InPlanePhaseEncodingDirectionDICOM": "COL",
  "InstitutionAddress": "Maynard_3_Hanover_NH_US_03755",
  "InstitutionName": "Dartmouth_College_-_PBS",
  "InstitutionalDepartmentName": "Department",
  "MRAcquisitionType": "2D",
  "MagneticFieldStrength": 3,
  "Manufacturer": "Siemens",
  "ManufacturersModelName": "Prisma",
  "Modality": "MR",
  "MultibandAccelerationFactor": 4,
  "PartialFourier": 1,
  "PatientPosition": "HFS",
  "PercentPhaseFOV": 100,
  "PhaseEncodingDirection": "j-",
  "PhaseEncodingSteps": 96,
  "PhaseResolution": 1,
  "PixelBandwidth": 2365,
  "ProcedureStepDescription": "Gobbini_Matteo_1037_budapest",
  "ProtocolName": "func_run-04_task-movie",
  "PulseSequenceDetails": "%SiemensSeq%_ep2d_bold",
  "ReceiveCoilActiveElements": "HEA;HEP",
  "ReceiveCoilName": "Head_32",
  "ReconMatrixPE": 96,
  "RefLinesPE": 12,
  "RepetitionTime": 1,
  "SAR": 0.0484441,
  "ScanOptions": "FS",
  "ScanningSequence": "EP",
  "SequenceName": "_epfid2d1_96",
  "SequenceVariant": "SK",
  "SeriesDescription": "func_run-04_task-movie",
  "SeriesNumber": 29,
  "ShimSetting": [4148, -7728, -7312, 704, -59, -78, 1, 97],
  "SliceThickness": 2.5,
  "SliceTiming": [0.735, 0, 0.49, 0.0825, 0.5725, 0.165, 0.655, 0.3275, 0.8175, 0.41, 0.9, 0.245, 0.735, 0, 0.49, 0.0825, 0.5725, 0.165, 0.655, 0.3275, 0.8175, 0.41, 0.9, 0.245, 0.735, 0, 0.49, 0.0825, 0.5725, 0.165, 0.655, 0.3275, 0.8175, 0.41, 0.9, 0.245, 0.735, 0, 0.49, 0.0825, 0.5725, 0.165, 0.655, 0.3275, 0.8175, 0.41, 0.9, 0.245],
  "SoftwareVersions": "syngo_MR_E11",
  "SpacingBetweenSlices": 2.5,
  "StationName": "AWP66112",
  "TaskName": "movie",
  "TotalReadoutTime": 0.0522511,
  "TxRefAmp": 230.61,
  "dcmmeta_affine": [
    [-2.498143196105957, -0.09072950482368469, -0.03238581866025925, 123.7895736694336],
    [-0.08852683007717133, 2.4935004711151123, -0.1569010615348816, -102.00296783447266],
    [-0.037995845079422, 0.155637726187706, 2.494861364364624, -74.94287872314453],
    [0.0, 0.0, 0.0, 1.0]
],
  "dcmmeta_reorient_transform": [
    [0.0, -1.0, 0.0, 95.0],
    [1.0, 0.0, 0.0, 0.0],
    [0.0, 0.0, 1.0, 0.0],
    [0.0, 0.0, 0.0, 1.0]
],
  "dcmmeta_shape": [96, 96, 48, 618],
  "dcmmeta_slice_dim": 2,
  "dcmmeta_version": 0.6,
  "global": {
    "const": {
      "AccessionNumber": "A001265",
      "AcquisitionMatrix": [96, 0, 0, 96],
      "AngioFlag": "N",
      "BitsAllocated": 16,
      "BitsStored": 12,
      "BodyPartExamined": "BRAIN",
      "Columns": 672,
      "EchoNumbers": 1,
      "EchoTime": 33.0,
      "EchoTrainLength": 96,
      "FlipAngle": 59.0,
      "HighBit": 11,
      "ImageOrientationPatient": [0.99925726941775, 0.03541073320341, -0.0151983383888, -0.036291802201, 0.99740022511091, -0.0622550884804],
      "ImagePositionPatient": [-808.50540345855, -878.50347717031, -4.3908273625077],
      "ImageType": [
        "ORIGINAL",
        "PRIMARY",
        "FMRI",
        "NONE",
        "ND",
        "NORM",
        "MOSAIC"
],
      "ImagedNucleus": "1H",
      "ImagingFrequency": 123.252311,
      "InPlanePhaseEncodingDirection": "COL",
      "MRAcquisitionType": "2D",
      "MagneticFieldStrength": 3.0,
      "Manufacturer": "SIEMENS",
      "ManufacturerModelName": "Prisma",
      "Modality": "MR",
      "NumberOfAverages": 1.0,
      "NumberOfPhaseEncodingSteps": 96,
      "PercentPhaseFieldOfView": 100.0,
      "PercentSampling": 100.0,
      "PerformedProcedureStepStartTime": "160714.090000",
      "PhotometricInterpretation": "MONOCHROME2",
      "PixelBandwidth": 2365.0,
      "PixelRepresentation": 0,
      "PixelSpacing": [2.5, 2.5],
      "ProtocolName": "func_run-04_task-movie",
      "RepetitionTime": 1000.0,
      "Rows": 672,
      "SAR": 0.04844407596111,
      "SamplesPerPixel": 1,
      "ScanOptions": "FS",
      "ScanningSequence": "EP",
      "SequenceName": "*epfid2d1_96",
      "SequenceVariant": "SK",
      "SeriesDescription": "func_run-04_task-movie",
      "SeriesNumber": 29,
      "SeriesTime": "165524.628000",
      "SliceLocation": -69.99069766603,
      "SliceThickness": 2.5,
      "SmallestImagePixelValue": 0,
      "SoftwareVersions": "syngo MR E11",
      "SpacingBetweenSlices": 2.4999999962202,
      "SpecificCharacterSet": "ISO_IR 100",
      "StudyID": "2",
      "StudyTime": "160714.043000",
      "TransmitCoilName": "Body",
      "VariableFlipAngleFlag": "N",
      "WindowCenterWidthExplanation": "Algo1",
      "dBdt": 0.0},
    "slices": {}
  },
  "time": {
    "samples": {
      "AcquisitionNumber": [1, 2, 3, 4, 5, 6, 7, 8, 9, 10, 11, 12, 13, 14, 15, 16, 17, 18, 19, 20, 21, 22, 23, 24, 25, 26, 27, 28, 29, 30, 31, 32, 33, 34, 35, 36, 37, 38, 39, 40, 41, 42, 43, 44, 45, 46, 47, 48, 49, 50, 51, 52, 53, 54, 55, 56, 57, 58, 59, 60, 61, 62, 63, 64, 65, 66, 67, 68, 69, 70, 71, 72, 73, 74, 75, 76, 77, 78, 79, 80, 81, 82, 83, 84, 85, 86, 87, 88, 89, 90, 91, 92, 93, 94, 95, 96, 97, 98, 99, 100, 101, 102, 103, 104, 105, 106, 107, 108, 109, 110, 111, 112, 113, 114, 115, 116, 117, 118, 119, 120, 121, 122, 123, 124, 125, 126, 127, 128, 129, 130, 131, 132, 133, 134, 135, 136, 137, 138, 139, 140, 141, 142, 143, 144, 145, 146, 147, 148, 149, 150, 151, 152, 153, 154, 155, 156, 157, 158, 159, 160, 161, 162, 163, 164, 165, 166, 167, 168, 169, 170, 171, 172, 173, 174, 175, 176, 177, 178, 179, 180, 181, 182, 183, 184, 185, 186, 187, 188, 189, 190, 191, 192, 193, 194, 195, 196, 197, 198, 199, 200, 201, 202, 203, 204, 205, 206, 207, 208, 209, 210, 211, 212, 213, 214, 215, 216, 217, 218, 219, 220, 221, 222, 223, 224, 225, 226, 227, 228, 229, 230, 231, 232, 233, 234, 235, 236, 237, 238, 239, 240, 241, 242, 243, 244, 245, 246, 247, 248, 249, 250, 251, 252, 253, 254, 255, 256, 257, 258, 259, 260, 261, 262, 263, 264, 265, 266, 267, 268, 269, 270, 271, 272, 273, 274, 275, 276, 277, 278, 279, 280, 281, 282, 283, 284, 285, 286, 287, 288, 289, 290, 291, 292, 293, 294, 295, 296, 297, 298, 299, 300, 301, 302, 303, 304, 305, 306, 307, 308, 309, 310, 311, 312, 313, 314, 315, 316, 317, 318, 319, 320, 321, 322, 323, 324, 325, 326, 327, 328, 329, 330, 331, 332, 333, 334, 335, 336, 337, 338, 339, 340, 341, 342, 343, 344, 345, 346, 347, 348, 349, 350, 351, 352, 353, 354, 355, 356, 357, 358, 359, 360, 361, 362, 363, 364, 365, 366, 367, 368, 369, 370, 371, 372, 373, 374, 375, 376, 377, 378, 379, 380, 381, 382, 383, 384, 385, 386, 387, 388, 389, 390, 391, 392, 393, 394, 395, 396, 397, 398, 399, 400, 401, 402, 403, 404, 405, 406, 407, 408, 409, 410, 411, 412, 413, 414, 415, 416, 417, 418, 419, 420, 421, 422, 423, 424, 425, 426, 427, 428, 429, 430, 431, 432, 433, 434, 435, 436, 437, 438, 439, 440, 441, 442, 443, 444, 445, 446, 447, 448, 449, 450, 451, 452, 453, 454, 455, 456, 457, 458, 459, 460, 461, 462, 463, 464, 465, 466, 467, 468, 469, 470, 471, 472, 473, 474, 475, 476, 477, 478, 479, 480, 481, 482, 483, 484, 485, 486, 487, 488, 489, 490, 491, 492, 493, 494, 495, 496, 497, 498, 499, 500, 501, 502, 503, 504, 505, 506, 507, 508, 509, 510, 511, 512, 513, 514, 515, 516, 517, 518, 519, 520, 521, 522, 523, 524, 525, 526, 527, 528, 529, 530, 531, 532, 533, 534, 535, 536, 537, 538, 539, 540, 541, 542, 543, 544, 545, 546, 547, 548, 549, 550, 551, 552, 553, 554, 555, 556, 557, 558, 559, 560, 561, 562, 563, 564, 565, 566, 567, 568, 569, 570, 571, 572, 573, 574, 575, 576, 577, 578, 579, 580, 581, 582, 583, 584, 585, 586, 587, 588, 589, 590, 591, 592, 593, 594, 595, 596, 597, 598, 599, 600, 601, 602, 603, 604, 605, 606, 607, 608, 609, 610, 611, 612, 613, 614, 615, 616, 617, 618],
      "AcquisitionTime": ["165522.942500", "165523.942500", "165524.942500", "165525.942500", "165526.942500", "165527.942500", "165528.942500", "165529.942500", "165530.942500", "165531.942500", "165532.942500", "165533.942500", "165534.942500", "165535.942500", "165536.942500", "165537.942500", "165538.942500", "165539.942500", "165540.942500", "165541.942500", "165542.942500", "165543.942500", "165544.942500", "165545.942500", "165546.942500", "165547.942500", "165548.942500", "165549.942500", "165550.942500", "165551.942500", "165552.942500", "165553.942500", "165554.942500", "165555.942500", "165556.942500", "165557.942500", "165558.942500", "165559.942500", "165600.942500", "165601.942500", "165602.942500", "165603.942500", "165604.942500", "165605.942500", "165606.942500", "165607.942500", "165608.942500", "165609.942500", "165610.942500", "165611.942500", "165612.942500", "165613.942500", "165614.942500", "165615.942500", "165616.942500", "165617.942500", "165618.942500", "165619.942500", "165620.942500", "165621.942500", "165622.942500", "165623.942500", "165624.942500", "165625.942500", "165626.942500", "165627.942500", "165628.942500", "165629.942500", "165630.942500", "165631.942500", "165632.942500", "165633.942500", "165634.942500", "165635.942500", "165636.942500", "165637.942500", "165638.942500", "165639.942500", "165640.942500", "165641.942500", "165642.942500", "165643.942500", "165644.942500", "165645.942500", "165646.942500", "165647.942500", "165648.942500", "165649.942500", "165650.942500", "165651.942500", "165652.942500", "165653.942500", "165654.942500", "165655.942500", "165656.942500", "165657.942500", "165658.942500", "165659.942500", "165700.942500", "165701.942500", "165702.942500", "165703.942500", "165704.942500", "165705.942500", "165706.942500", "165707.942500", "165708.942500", "165709.942500", "165710.942500", "165711.942500", "165712.942500", "165713.942500", "165714.942500", "165715.942500", "165716.942500", "165717.942500", "165718.942500", "165719.942500", "165720.942500", "165721.942500", "165722.942500", "165723.942500", "165724.942500", "165725.942500", "165726.942500", "165727.942500", "165728.942500", "165729.942500", "165730.942500", "165731.942500", "165732.942500", "165733.942500", "165734.942500", "165735.942500", "165736.942500", "165737.942500", "165738.942500", "165739.942500", "165740.942500", "165741.942500", "165742.942500", "165743.942500", "165744.942500", "165745.942500", "165746.942500", "165747.942500", "165748.942500", "165749.942500", "165750.942500", "165751.942500", "165752.942500", "165753.942500", "165754.942500", "165755.942500", "165756.942500", "165757.942500", "165758.942500", "165759.942500", "165800.942500", "165801.942500", "165802.942500", "165803.942500", "165804.942500", "165805.942500", "165806.942500", "165807.942500", "165808.942500", "165809.942500", "165810.942500", "165811.942500", "165812.942500", "165813.942500", "165814.942500", "165815.942500", "165816.942500", "165817.942500", "165818.942500", "165819.942500", "165820.942500", "165821.942500", "165822.942500", "165823.942500", "165824.942500", "165825.942500", "165826.942500", "165827.942500", "165828.942500", "165829.942500", "165830.942500", "165831.942500", "165832.942500", "165833.942500", "165834.942500", "165835.942500", "165836.942500", "165837.942500", "165838.942500", "165839.942500", "165840.942500", "165841.942500", "165842.942500", "165843.942500", "165844.942500", "165845.942500", "165846.942500", "165847.942500", "165848.942500", "165849.942500", "165850.942500", "165851.942500", "165852.942500", "165853.942500", "165854.942500", "165855.942500", "165856.942500", "165857.942500", "165858.942500", "165859.942500", "165900.942500", "165901.942500", "165902.942500", "165903.942500", "165904.942500", "165905.942500", "165906.942500", "165907.942500", "165908.942500", "165909.942500", "165910.942500", "165911.942500", "165912.942500", "165913.942500", "165914.942500", "165915.942500", "165916.942500", "165917.942500", "165918.942500", "165919.942500", "165920.942500", "165921.942500", "165922.942500", "165923.942500", "165924.942500", "165925.942500", "165926.942500", "165927.942500", "165928.942500", "165929.942500", "165930.942500", "165931.942500", "165932.942500", "165933.942500", "165934.942500", "165935.942500", "165936.942500", "165937.942500", "165938.942500", "165939.942500", "165940.942500", "165941.942500", "165942.942500", "165943.942500", "165944.942500", "165945.942500", "165946.942500", "165947.942500", "165948.942500", "165949.942500", "165950.942500", "165951.942500", "165952.942500", "165953.942500", "165954.942500", "165955.942500", "165956.942500", "165957.942500", "165958.942500", "165959.942500", "170000.942500", "170001.942500", "170002.942500", "170003.942500", "170004.942500", "170005.942500", "170006.942500", "170007.942500", "170008.942500", "170009.942500", "170010.942500", "170011.942500", "170012.942500", "170013.942500", "170014.942500", "170015.942500", "170016.942500", "170017.942500", "170018.942500", "170019.942500", "170020.942500", "170021.942500", "170022.942500", "170023.942500", "170024.942500", "170025.942500", "170026.942500", "170027.942500", "170028.942500", "170029.942500", "170030.942500", "170031.942500", "170032.942500", "170033.942500", "170034.942500", "170035.942500", "170036.942500", "170037.942500", "170038.942500", "170039.942500", "170040.942500", "170041.942500", "170042.942500", "170043.942500", "170044.942500", "170045.942500", "170046.942500", "170047.942500", "170048.942500", "170049.942500", "170050.942500", "170051.942500", "170052.942500", "170053.942500", "170054.942500", "170055.942500", "170056.942500", "170057.942500", "170058.942500", "170059.942500", "170100.942500", "170101.942500", "170102.942500", "170103.942500", "170104.942500", "170105.942500", "170106.942500", "170107.942500", "170108.942500", "170109.942500", "170110.942500", "170111.942500", "170112.942500", "170113.942500", "170114.942500", "170115.942500", "170116.942500", "170117.942500", "170118.942500", "170119.942500", "170120.942500", "170121.942500", "170122.942500", "170123.942500", "170124.942500", "170125.942500", "170126.942500", "170127.942500", "170128.942500", "170129.942500", "170130.942500", "170131.942500", "170132.942500", "170133.942500", "170134.942500", "170135.942500", "170136.942500", "170137.942500", "170138.942500", "170139.942500", "170140.942500", "170141.942500", "170142.942500", "170143.942500", "170144.942500", "170145.942500", "170146.942500", "170147.942500", "170148.942500", "170149.942500", "170150.942500", "170151.942500", "170152.942500", "170153.942500", "170154.942500", "170155.942500", "170156.942500", "170157.942500", "170158.942500", "170159.942500", "170200.942500", "170201.942500", "170202.942500", "170203.942500", "170204.942500", "170205.942500", "170206.942500", "170207.942500", "170208.942500", "170209.942500", "170210.942500", "170211.942500", "170212.942500", "170213.942500", "170214.942500", "170215.942500", "170216.942500", "170217.942500", "170218.942500", "170219.942500", "170220.942500", "170221.942500", "170222.942500", "170223.942500", "170224.942500", "170225.942500", "170226.942500", "170227.942500", "170228.942500", "170229.942500", "170230.942500", "170231.942500", "170232.942500", "170233.942500", "170234.942500", "170235.942500", "170236.942500", "170237.942500", "170238.942500", "170239.942500", "170240.942500", "170241.942500", "170242.942500", "170243.942500", "170244.942500", "170245.942500", "170246.942500", "170247.942500", "170248.942500", "170249.942500", "170250.942500", "170251.942500", "170252.942500", "170253.942500", "170254.942500", "170255.942500", "170256.942500", "170257.942500", "170258.942500", "170259.942500", "170300.942500", "170301.942500", "170302.942500", "170303.942500", "170304.942500", "170305.942500", "170306.942500", "170307.942500", "170308.942500", "170309.942500", "170310.942500", "170311.942500", "170312.942500", "170313.942500", "170314.942500", "170315.942500", "170316.942500", "170317.942500", "170318.942500", "170319.942500", "170320.942500", "170321.942500", "170322.942500", "170323.942500", "170324.942500", "170325.942500", "170326.942500", "170327.942500", "170328.942500", "170329.942500", "170330.942500", "170331.942500", "170332.942500", "170333.942500", "170334.942500", "170335.942500", "170336.942500", "170337.942500", "170338.942500", "170339.942500", "170340.942500", "170341.942500", "170342.942500", "170343.942500", "170344.942500", "170345.942500", "170346.942500", "170347.942500", "170348.942500", "170349.942500", "170350.942500", "170351.942500", "170352.942500", "170353.942500", "170354.942500", "170355.942500", "170356.942500", "170357.942500", "170358.942500", "170359.942500", "170400.942500", "170401.942500", "170402.942500", "170403.942500", "170404.942500", "170405.942500", "170406.942500", "170407.942500", "170408.942500", "170409.942500", "170410.942500", "170411.942500", "170412.942500", "170413.942500", "170414.942500", "170415.942500", "170416.942500", "170417.942500", "170418.942500", "170419.942500", "170420.942500", "170421.942500", "170422.942500", "170423.942500", "170424.942500", "170425.942500", "170426.942500", "170427.942500", "170428.942500", "170429.942500", "170430.942500", "170431.942500", "170432.942500", "170433.942500", "170434.942500", "170435.942500", "170436.942500", "170437.942500", "170438.942500", "170439.942500", "170440.942500", "170441.942500", "170442.942500", "170443.942500", "170444.942500", "170445.942500", "170446.942500", "170447.942500", "170448.942500", "170449.942500", "170450.942500", "170451.942500", "170452.942500", "170453.942500", "170454.942500", "170455.942500", "170456.942500", "170457.942500", "170458.942500", "170459.942500", "170500.942500", "170501.942500", "170502.942500", "170503.942500", "170504.942500", "170505.942500", "170506.942500", "170507.942500", "170508.942500", "170509.942500", "170510.942500", "170511.942500", "170512.942500", "170513.942500", "170514.942500", "170515.942500", "170516.942500", "170517.942500", "170518.942500", "170519.942500", "170520.942500", "170521.942500", "170522.942500", "170523.942500", "170524.942500", "170525.942500", "170526.942500", "170527.942500", "170528.942500", "170529.942500", "170530.942500", "170531.942500", "170532.942500", "170533.942500", "170534.942500", "170535.942500", "170536.942500", "170537.942500", "170538.942500", "170539.942500"],
      "ContentTime": ["165524.632000", "165525.503000", "165526.495000", "165527.483000", "165528.478000", "165529.479000", "165530.489000", "165531.541000", "165532.485000", "165533.495000", "165534.541000", "165535.478000", "165536.477000", "165537.496000", "165538.512000", "165539.487000", "165540.480000", "165541.504000", "165542.439000", "165543.462000", "165544.459000", "165545.523000", "165546.475000", "165547.478000", "165548.469000", "165549.526000", "165550.505000", "165551.493000", "165552.467000", "165553.468000", "165554.484000", "165555.493000", "165556.487000", "165557.481000", "165558.476000", "165559.473000", "165600.494000", "165601.502000", "165602.505000", "165603.469000", "165604.457000", "165605.480000", "165606.469000", "165607.480000", "165608.486000", "165609.481000", "165610.476000", "165611.492000", "165612.476000", "165613.476000", "165614.498000", "165615.485000", "165616.493000", "165617.468000", "165618.459000", "165619.501000", "165620.491000", "165621.492000", "165622.463000", "165623.471000", "165624.472000", "165625.494000", "165626.465000", "165627.472000", "165628.470000", "165629.475000", "165630.501000", "165631.471000", "165632.482000", "165633.455000", "165634.472000", "165635.493000", "165636.490000", "165637.466000", "165638.494000", "165639.470000", "165640.485000", "165641.484000", "165642.482000", "165643.471000", "165644.469000", "165645.478000", "165646.465000", "165647.475000", "165648.453000", "165649.464000", "165650.469000", "165651.469000", "165652.463000", "165653.486000", "165654.480000", "165655.472000", "165656.460000", "165657.507000", "165658.460000", "165659.477000", "165700.487000", "165701.479000", "165702.477000", "165703.480000", "165704.519000", "165705.524000", "165706.496000", "165707.577000", "165708.499000", "165709.496000", "165710.488000", "165711.499000", "165712.497000", "165713.484000", "165714.502000", "165715.498000", "165716.488000", "165717.488000", "165718.483000", "165719.484000", "165720.486000", "165721.469000", "165722.484000", "165723.480000", "165724.487000", "165725.474000", "165726.483000", "165727.470000", "165728.456000", "165729.468000", "165730.487000", "165731.500000", "165732.482000", "165733.485000", "165734.492000", "165735.482000", "165736.497000", "165737.478000", "165738.519000", "165739.483000", "165740.573000", "165741.496000", "165742.493000", "165743.497000", "165744.474000", "165745.480000", "165746.524000", "165747.513000", "165748.484000", "165749.479000", "165750.485000", "165751.510000", "165752.500000", "165753.499000", "165754.498000", "165755.479000", "165756.487000", "165757.461000", "165758.516000", "165759.470000", "165800.490000", "165801.498000", "165802.480000", "165803.508000", "165804.487000", "165805.472000", "165806.505000", "165807.483000", "165808.491000", "165809.497000", "165810.482000", "165811.491000", "165812.499000", "165813.472000", "165814.501000", "165815.497000", "165816.468000", "165817.486000", "165818.484000", "165819.479000", "165820.494000", "165821.517000", "165822.487000", "165823.470000", "165824.485000", "165825.471000", "165826.481000", "165827.518000", "165828.511000", "165829.488000", "165830.519000", "165831.490000", "165832.479000", "165833.482000", "165834.504000", "165835.498000", "165836.494000", "165837.470000", "165838.479000", "165839.495000", "165840.508000", "165841.500000", "165842.501000", "165843.486000", "165844.498000", "165845.472000", "165846.484000", "165847.477000", "165848.479000", "165849.522000", "165850.467000", "165851.491000", "165852.510000", "165853.498000", "165854.472000", "165855.496000", "165856.488000", "165857.489000", "165858.527000", "165859.500000", "165900.482000", "165901.485000", "165902.488000", "165903.510000", "165904.464000", "165905.482000", "165906.498000", "165907.489000", "165908.493000", "165909.461000", "165910.474000", "165911.470000", "165912.467000", "165913.484000", "165914.470000", "165915.485000", "165916.482000", "165917.502000", "165918.487000", "165919.546000", "165920.474000", "165921.484000", "165922.474000", "165923.469000", "165924.489000", "165925.474000", "165926.498000", "165927.466000", "165928.475000", "165929.491000", "165930.487000", "165931.523000", "165932.530000", "165933.482000", "165934.475000", "165935.485000", "165936.470000", "165937.471000", "165938.470000", "165939.474000", "165940.476000", "165941.509000", "165942.501000", "165943.478000", "165944.503000", "165945.520000", "165946.487000", "165947.487000", "165948.444000", "165949.474000", "165950.463000", "165951.467000", "165952.484000", "165953.485000", "165954.493000", "165955.453000", "165956.505000", "165957.471000", "165958.497000", "165959.460000", "170000.499000", "170001.478000", "170002.457000", "170003.492000", "170004.481000", "170005.572000", "170006.464000", "170007.470000", "170008.527000", "170009.480000", "170010.487000", "170011.524000", "170012.497000", "170013.514000", "170014.477000", "170015.468000", "170016.522000", "170017.457000", "170018.481000", "170019.519000", "170020.506000", "170021.495000", "170022.526000", "170023.494000", "170024.498000", "170025.486000", "170026.474000", "170027.485000", "170028.472000", "170029.475000", "170030.485000", "170031.483000", "170032.488000", "170033.464000", "170034.470000", "170035.487000", "170036.476000", "170037.473000", "170038.497000", "170039.467000", "170040.475000", "170041.506000", "170042.491000", "170043.476000", "170044.492000", "170045.449000", "170046.470000", "170047.485000", "170048.484000", "170049.486000", "170050.478000", "170051.492000", "170052.542000", "170053.493000", "170054.468000", "170055.491000", "170056.470000", "170057.479000", "170058.502000", "170059.479000", "170100.484000", "170101.491000", "170102.496000", "170103.480000", "170104.488000", "170105.475000", "170106.488000", "170107.473000", "170108.450000", "170109.492000", "170110.495000", "170111.491000", "170112.466000", "170113.460000", "170114.468000", "170115.487000", "170116.451000", "170117.492000", "170118.485000", "170119.480000", "170120.494000", "170121.469000", "170122.471000", "170123.476000", "170124.485000", "170125.474000", "170126.458000", "170127.456000", "170128.477000", "170129.459000", "170130.480000", "170131.492000", "170132.491000", "170133.493000", "170134.489000", "170135.486000", "170136.478000", "170137.501000", "170138.467000", "170139.494000", "170140.472000", "170141.494000", "170142.497000", "170143.507000", "170144.494000", "170145.506000", "170146.523000", "170147.473000", "170148.477000", "170149.490000", "170150.518000", "170151.522000", "170152.499000", "170153.472000", "170154.490000", "170155.475000", "170156.475000", "170157.473000", "170158.496000", "170159.465000", "170200.476000", "170201.497000", "170202.519000", "170203.494000", "170204.502000", "170205.562000", "170206.466000", "170207.493000", "170208.499000", "170209.498000", "170210.468000", "170211.500000", "170212.484000", "170213.480000", "170214.476000", "170215.502000", "170216.511000", "170217.500000", "170218.495000", "170219.476000", "170220.480000", "170221.480000", "170222.506000", "170223.472000", "170224.495000", "170225.488000", "170226.493000", "170227.495000", "170228.478000", "170229.493000", "170230.480000", "170231.494000", "170232.468000", "170233.529000", "170234.484000", "170235.483000", "170236.498000", "170237.506000", "170238.489000", "170239.474000", "170240.478000", "170241.448000", "170242.487000", "170243.524000", "170244.481000", "170245.507000", "170246.513000", "170247.527000", "170248.496000", "170249.472000", "170250.472000", "170251.501000", "170252.537000", "170253.493000", "170254.480000", "170255.467000", "170256.463000", "170257.495000", "170258.453000", "170259.506000", "170300.477000", "170301.477000", "170302.486000", "170303.474000", "170304.489000", "170305.494000", "170306.486000", "170307.485000", "170308.501000", "170309.538000", "170310.499000", "170311.489000", "170312.503000", "170313.517000", "170314.512000", "170315.502000", "170316.480000", "170317.486000", "170318.479000", "170319.498000", "170320.477000", "170321.494000", "170322.510000", "170323.497000", "170324.444000", "170325.493000", "170326.484000", "170327.509000", "170328.512000", "170329.539000", "170330.507000", "170331.498000", "170332.500000", "170333.479000", "170334.553000", "170335.479000", "170336.514000", "170337.460000", "170338.476000", "170339.525000", "170340.476000", "170341.491000", "170342.486000", "170343.486000", "170344.464000", "170345.456000", "170346.474000", "170347.479000", "170348.474000", "170349.461000", "170350.497000", "170351.529000", "170352.530000", "170353.508000", "170354.496000", "170355.520000", "170356.499000", "170357.480000", "170358.485000", "170359.523000", "170400.481000", "170401.442000", "170402.478000", "170403.466000", "170404.482000", "170405.453000", "170406.467000", "170407.478000", "170408.492000", "170409.463000", "170410.452000", "170411.482000", "170412.468000", "170413.464000", "170414.477000", "170415.492000", "170416.473000", "170417.492000", "170418.479000", "170419.492000", "170420.486000", "170421.475000", "170422.483000", "170423.490000", "170424.485000", "170425.483000", "170426.474000", "170427.468000", "170428.476000", "170429.482000", "170430.514000", "170431.468000", "170432.481000", "170433.495000", "170434.464000", "170435.491000", "170436.487000", "170437.497000", "170438.498000", "170439.480000", "170440.458000", "170441.505000", "170442.528000", "170443.472000", "170444.478000", "170445.471000", "170446.492000", "170447.488000", "170448.464000", "170449.451000", "170450.487000", "170451.515000", "170452.493000", "170453.482000", "170454.503000", "170455.487000", "170456.474000", "170457.484000", "170458.485000", "170459.517000", "170500.461000", "170501.457000", "170502.448000", "170503.487000", "170504.487000", "170505.498000", "170506.476000", "170507.497000", "170508.487000", "170509.482000", "170510.456000", "170511.444000", "170512.488000", "170513.469000", "170514.466000", "170515.475000", "170516.464000", "170517.473000", "170518.508000", "170519.477000", "170520.495000", "170521.443000", "170522.477000", "170523.468000", "170524.472000", "170525.477000", "170526.477000", "170527.511000", "170528.480000", "170529.479000", "170530.464000", "170531.487000", "170532.503000", "170533.460000", "170534.495000", "170535.480000", "170536.489000", "170537.462000", "170538.483000", "170539.485000", "170540.486000", "170541.540000"],
