{
  "AcquisitionMatrixPE": 96,
  "AcquisitionNumber": 1,
  "AcquisitionTime": "11:48:5.107500",
  "BandwidthPerPixelPhaseEncode": 18.939,
  "BaseResolution": 96,
  "BodyPartExamined": "BRAIN",
  "ConsistencyInfo": "N4_VE11C_LATEST_20160120",
  "ConversionSoftware": "dcm2niix",
  "ConversionSoftwareVersion": "v1.0.20190902",
  "DerivedVendorReportedEchoSpacing": 0.000550011,
  "DeviceSerialNumber": "66112",
  "DwellTime": 2.2e-06,
  "EchoTime": 0.033,
  "EchoTrainLength": 96,
  "EffectiveEchoSpacing": 0.000550011,
  "FlipAngle": 59,
  "ImageOrientationPatientDICOM": [0.996395, -0.0169187, 0.0831351, 0.0203495, 0.998968, -0.0405955],
  "ImageType": [
    "ORIGINAL",
    "PRIMARY",
    "FMRI",
    "NONE",
    "ND",
    "NORM",
    "MOSAIC"
],
  "ImagingFrequency": 123.252,
  "InPlanePhaseEncodingDirectionDICOM": "COL",
  "InstitutionAddress": "Maynard_3_Hanover_NH_US_03755",
  "InstitutionName": "Dartmouth_College_-_PBS",
  "InstitutionalDepartmentName": "Department",
  "MRAcquisitionType": "2D",
  "MagneticFieldStrength": 3,
  "Manufacturer": "Siemens",
  "ManufacturersModelName": "Prisma",
  "Modality": "MR",
  "MultibandAccelerationFactor": 4,
  "PartialFourier": 1,
  "PatientPosition": "HFS",
  "PercentPhaseFOV": 100,
  "PhaseEncodingDirection": "j-",
  "PhaseEncodingSteps": 96,
  "PhaseResolution": 1,
  "PixelBandwidth": 2365,
  "ProcedureStepDescription": "Gobbini_Matteo_1037_budapest",
  "ProtocolName": "func_run-03_task-movie",
  "PulseSequenceDetails": "%SiemensSeq%_ep2d_bold",
  "ReceiveCoilActiveElements": "HEA;HEP",
  "ReceiveCoilName": "Head_32",
  "ReconMatrixPE": 96,
  "RefLinesPE": 12,
  "RepetitionTime": 1,
  "SAR": 0.0573787,
  "ScanOptions": "FS",
  "ScanningSequence": "EP",
  "SequenceName": "_epfid2d1_96",
  "SequenceVariant": "SK",
  "SeriesDescription": "func_run-03_task-movie",
  "SeriesNumber": 22,
  "ShimSetting": [4172, -7687, -7312, 723, -4, -61, -11, 21],
  "SliceThickness": 2.5,
  "SliceTiming": [0.735, 0, 0.49, 0.0825, 0.5725, 0.165, 0.655, 0.3275, 0.8175, 0.41, 0.9, 0.245, 0.735, 0, 0.49, 0.0825, 0.5725, 0.165, 0.655, 0.3275, 0.8175, 0.41, 0.9, 0.245, 0.735, 0, 0.49, 0.0825, 0.5725, 0.165, 0.655, 0.3275, 0.8175, 0.41, 0.9, 0.245, 0.735, 0, 0.49, 0.0825, 0.5725, 0.165, 0.655, 0.3275, 0.8175, 0.41, 0.9, 0.245],
  "SoftwareVersions": "syngo_MR_E11",
  "SpacingBetweenSlices": 2.5,
  "StationName": "AWP66112",
  "TaskName": "movie",
  "TotalReadoutTime": 0.0522511,
  "TxRefAmp": 236.873,
  "dcmmeta_affine": [
    [-2.4909865856170654, 0.05087384954094887, 0.20590628683567047, 114.02253723144531],
    [0.042296793311834335, 2.4974210262298584, -0.10535214841365814, -105.1718978881836],
    [0.20783774554729462, 0.1014886423945427, 2.4892778396606445, -80.77529907226562],
    [0.0, 0.0, 0.0, 1.0]
],
  "dcmmeta_reorient_transform": [
    [0.0, -1.0, 0.0, 95.0],
    [1.0, 0.0, 0.0, 0.0],
    [0.0, 0.0, 1.0, 0.0],
    [0.0, 0.0, 0.0, 1.0]
],
  "dcmmeta_shape": [96, 96, 48, 535],
  "dcmmeta_slice_dim": 2,
  "dcmmeta_version": 0.6,
  "global": {
    "const": {
      "AccessionNumber": "A001249",
      "AcquisitionMatrix": [96, 0, 0, 96],
      "AngioFlag": "N",
      "BitsAllocated": 16,
      "BitsStored": 12,
      "BodyPartExamined": "BRAIN",
      "Columns": 672,
      "EchoNumbers": 1,
      "EchoTime": 33.0,
      "EchoTrainLength": 96,
      "FlipAngle": 59.0,
      "HighBit": 11,
      "ImageOrientationPatient": [0.99639465715042, -0.016918717777, 0.08313509602376, 0.02034953908578, 0.99896842047186, -0.0405954573684],
      "ImagePositionPatient": [-850.91137513405, -839.15888901186, -101.7624178694],
      "ImageType": [
        "ORIGINAL",
        "PRIMARY",
        "FMRI",
        "NONE",
        "ND",
        "NORM",
        "MOSAIC"
],
      "ImagedNucleus": "1H",
      "ImagingFrequency": 123.252318,
      "InPlanePhaseEncodingDirection": "COL",
      "MRAcquisitionType": "2D",
      "MagneticFieldStrength": 3.0,
      "Manufacturer": "SIEMENS",
      "ManufacturerModelName": "Prisma",
      "Modality": "MR",
      "NumberOfAverages": 1.0,
      "NumberOfPhaseEncodingSteps": 96,
      "PercentPhaseFieldOfView": 100.0,
      "PercentSampling": 100.0,
      "PerformedProcedureStepStartTime": "111113.347000",
      "PhotometricInterpretation": "MONOCHROME2",
      "PixelBandwidth": 2365.0,
      "PixelRepresentation": 0,
      "PixelSpacing": [2.5, 2.5],
      "ProtocolName": "func_run-03_task-movie",
      "RepetitionTime": 1000.0,
      "Rows": 672,
      "SAR": 0.05737874103195,
      "SamplesPerPixel": 1,
      "ScanOptions": "FS",
      "ScanningSequence": "EP",
      "SequenceName": "*epfid2d1_96",
      "SequenceVariant": "SK",
      "SeriesDescription": "func_run-03_task-movie",
      "SeriesNumber": 22,
      "SeriesTime": "114806.041000",
      "SliceLocation": -66.605644092608,
      "SliceThickness": 2.5,
      "SmallestImagePixelValue": 0,
      "SoftwareVersions": "syngo MR E11",
      "SpacingBetweenSlices": 2.5000000653608,
      "SpecificCharacterSet": "ISO_IR 100",
      "StudyID": "2",
      "StudyTime": "111113.306000",
      "TransmitCoilName": "Body",
      "VariableFlipAngleFlag": "N",
      "WindowCenterWidthExplanation": "Algo1",
      "dBdt": 0.0},
    "slices": {}
  },
  "time": {
    "samples": {
      "AcquisitionNumber": [1, 2, 3, 4, 5, 6, 7, 8, 9, 10, 11, 12, 13, 14, 15, 16, 17, 18, 19, 20, 21, 22, 23, 24, 25, 26, 27, 28, 29, 30, 31, 32, 33, 34, 35, 36, 37, 38, 39, 40, 41, 42, 43, 44, 45, 46, 47, 48, 49, 50, 51, 52, 53, 54, 55, 56, 57, 58, 59, 60, 61, 62, 63, 64, 65, 66, 67, 68, 69, 70, 71, 72, 73, 74, 75, 76, 77, 78, 79, 80, 81, 82, 83, 84, 85, 86, 87, 88, 89, 90, 91, 92, 93, 94, 95, 96, 97, 98, 99, 100, 101, 102, 103, 104, 105, 106, 107, 108, 109, 110, 111, 112, 113, 114, 115, 116, 117, 118, 119, 120, 121, 122, 123, 124, 125, 126, 127, 128, 129, 130, 131, 132, 133, 134, 135, 136, 137, 138, 139, 140, 141, 142, 143, 144, 145, 146, 147, 148, 149, 150, 151, 152, 153, 154, 155, 156, 157, 158, 159, 160, 161, 162, 163, 164, 165, 166, 167, 168, 169, 170, 171, 172, 173, 174, 175, 176, 177, 178, 179, 180, 181, 182, 183, 184, 185, 186, 187, 188, 189, 190, 191, 192, 193, 194, 195, 196, 197, 198, 199, 200, 201, 202, 203, 204, 205, 206, 207, 208, 209, 210, 211, 212, 213, 214, 215, 216, 217, 218, 219, 220, 221, 222, 223, 224, 225, 226, 227, 228, 229, 230, 231, 232, 233, 234, 235, 236, 237, 238, 239, 240, 241, 242, 243, 244, 245, 246, 247, 248, 249, 250, 251, 252, 253, 254, 255, 256, 257, 258, 259, 260, 261, 262, 263, 264, 265, 266, 267, 268, 269, 270, 271, 272, 273, 274, 275, 276, 277, 278, 279, 280, 281, 282, 283, 284, 285, 286, 287, 288, 289, 290, 291, 292, 293, 294, 295, 296, 297, 298, 299, 300, 301, 302, 303, 304, 305, 306, 307, 308, 309, 310, 311, 312, 313, 314, 315, 316, 317, 318, 319, 320, 321, 322, 323, 324, 325, 326, 327, 328, 329, 330, 331, 332, 333, 334, 335, 336, 337, 338, 339, 340, 341, 342, 343, 344, 345, 346, 347, 348, 349, 350, 351, 352, 353, 354, 355, 356, 357, 358, 359, 360, 361, 362, 363, 364, 365, 366, 367, 368, 369, 370, 371, 372, 373, 374, 375, 376, 377, 378, 379, 380, 381, 382, 383, 384, 385, 386, 387, 388, 389, 390, 391, 392, 393, 394, 395, 396, 397, 398, 399, 400, 401, 402, 403, 404, 405, 406, 407, 408, 409, 410, 411, 412, 413, 414, 415, 416, 417, 418, 419, 420, 421, 422, 423, 424, 425, 426, 427, 428, 429, 430, 431, 432, 433, 434, 435, 436, 437, 438, 439, 440, 441, 442, 443, 444, 445, 446, 447, 448, 449, 450, 451, 452, 453, 454, 455, 456, 457, 458, 459, 460, 461, 462, 463, 464, 465, 466, 467, 468, 469, 470, 471, 472, 473, 474, 475, 476, 477, 478, 479, 480, 481, 482, 483, 484, 485, 486, 487, 488, 489, 490, 491, 492, 493, 494, 495, 496, 497, 498, 499, 500, 501, 502, 503, 504, 505, 506, 507, 508, 509, 510, 511, 512, 513, 514, 515, 516, 517, 518, 519, 520, 521, 522, 523, 524, 525, 526, 527, 528, 529, 530, 531, 532, 533, 534, 535],
      "AcquisitionTime": ["114805.107500", "114806.107500", "114807.107500", "114808.107500", "114809.107500", "114810.107500", "114811.107500", "114812.107500", "114813.107500", "114814.107500", "114815.107500", "114816.107500", "114817.107500", "114818.107500", "114819.107500", "114820.107500", "114821.107500", "114822.107500", "114823.107500", "114824.107500", "114825.107500", "114826.107500", "114827.107500", "114828.107500", "114829.107500", "114830.107500", "114831.107500", "114832.107500", "114833.107500", "114834.107500", "114835.107500", "114836.107500", "114837.107500", "114838.107500", "114839.107500", "114840.107500", "114841.107500", "114842.107500", "114843.107500", "114844.107500", "114845.107500", "114846.107500", "114847.107500", "114848.107500", "114849.107500", "114850.107500", "114851.107500", "114852.107500", "114853.107500", "114854.107500", "114855.107500", "114856.107500", "114857.107500", "114858.107500", "114859.107500", "114900.107500", "114901.107500", "114902.107500", "114903.107500", "114904.107500", "114905.107500", "114906.107500", "114907.107500", "114908.107500", "114909.107500", "114910.107500", "114911.107500", "114912.107500", "114913.107500", "114914.107500", "114915.107500", "114916.107500", "114917.107500", "114918.107500", "114919.107500", "114920.107500", "114921.107500", "114922.107500", "114923.107500", "114924.107500", "114925.107500", "114926.107500", "114927.107500", "114928.107500", "114929.107500", "114930.107500", "114931.107500", "114932.107500", "114933.107500", "114934.107500", "114935.107500", "114936.107500", "114937.107500", "114938.107500", "114939.107500", "114940.107500", "114941.107500", "114942.107500", "114943.107500", "114944.107500", "114945.107500", "114946.107500", "114947.107500", "114948.107500", "114949.107500", "114950.107500", "114951.107500", "114952.107500", "114953.107500", "114954.107500", "114955.107500", "114956.107500", "114957.107500", "114958.107500", "114959.107500", "115000.107500", "115001.107500", "115002.107500", "115003.107500", "115004.107500", "115005.107500", "115006.107500", "115007.107500", "115008.107500", "115009.107500", "115010.107500", "115011.107500", "115012.107500", "115013.107500", "115014.107500", "115015.107500", "115016.107500", "115017.107500", "115018.107500", "115019.107500", "115020.107500", "115021.107500", "115022.107500", "115023.107500", "115024.107500", "115025.107500", "115026.107500", "115027.107500", "115028.107500", "115029.107500", "115030.107500", "115031.107500", "115032.107500", "115033.107500", "115034.107500", "115035.107500", "115036.107500", "115037.107500", "115038.107500", "115039.107500", "115040.107500", "115041.107500", "115042.107500", "115043.107500", "115044.107500", "115045.107500", "115046.107500", "115047.107500", "115048.107500", "115049.107500", "115050.107500", "115051.107500", "115052.107500", "115053.107500", "115054.107500", "115055.107500", "115056.107500", "115057.107500", "115058.107500", "115059.107500", "115100.107500", "115101.107500", "115102.107500", "115103.107500", "115104.107500", "115105.107500", "115106.107500", "115107.107500", "115108.107500", "115109.107500", "115110.107500", "115111.107500", "115112.107500", "115113.107500", "115114.107500", "115115.107500", "115116.107500", "115117.107500", "115118.107500", "115119.107500", "115120.107500", "115121.107500", "115122.107500", "115123.107500", "115124.107500", "115125.107500", "115126.107500", "115127.107500", "115128.107500", "115129.107500", "115130.107500", "115131.107500", "115132.107500", "115133.107500", "115134.107500", "115135.107500", "115136.107500", "115137.107500", "115138.107500", "115139.107500", "115140.107500", "115141.107500", "115142.107500", "115143.107500", "115144.107500", "115145.107500", "115146.107500", "115147.107500", "115148.107500", "115149.107500", "115150.107500", "115151.107500", "115152.107500", "115153.107500", "115154.107500", "115155.107500", "115156.107500", "115157.107500", "115158.107500", "115159.107500", "115200.107500", "115201.107500", "115202.107500", "115203.107500", "115204.107500", "115205.107500", "115206.107500", "115207.107500", "115208.107500", "115209.107500", "115210.107500", "115211.107500", "115212.107500", "115213.107500", "115214.107500", "115215.107500", "115216.107500", "115217.107500", "115218.107500", "115219.107500", "115220.107500", "115221.107500", "115222.107500", "115223.107500", "115224.107500", "115225.107500", "115226.107500", "115227.107500", "115228.107500", "115229.107500", "115230.107500", "115231.107500", "115232.107500", "115233.107500", "115234.107500", "115235.107500", "115236.107500", "115237.107500", "115238.107500", "115239.107500", "115240.107500", "115241.107500", "115242.107500", "115243.107500", "115244.107500", "115245.107500", "115246.107500", "115247.107500", "115248.107500", "115249.107500", "115250.107500", "115251.107500", "115252.107500", "115253.107500", "115254.107500", "115255.107500", "115256.107500", "115257.107500", "115258.107500", "115259.107500", "115300.107500", "115301.107500", "115302.107500", "115303.107500", "115304.107500", "115305.107500", "115306.107500", "115307.107500", "115308.107500", "115309.107500", "115310.107500", "115311.107500", "115312.107500", "115313.107500", "115314.107500", "115315.107500", "115316.107500", "115317.107500", "115318.107500", "115319.107500", "115320.107500", "115321.107500", "115322.107500", "115323.107500", "115324.107500", "115325.107500", "115326.107500", "115327.107500", "115328.107500", "115329.107500", "115330.107500", "115331.107500", "115332.107500", "115333.107500", "115334.107500", "115335.107500", "115336.107500", "115337.107500", "115338.107500", "115339.107500", "115340.107500", "115341.107500", "115342.107500", "115343.107500", "115344.107500", "115345.107500", "115346.107500", "115347.107500", "115348.107500", "115349.107500", "115350.107500", "115351.107500", "115352.107500", "115353.107500", "115354.107500", "115355.107500", "115356.107500", "115357.107500", "115358.107500", "115359.107500", "115400.107500", "115401.107500", "115402.107500", "115403.107500", "115404.107500", "115405.107500", "115406.107500", "115407.107500", "115408.107500", "115409.107500", "115410.107500", "115411.107500", "115412.107500", "115413.107500", "115414.107500", "115415.107500", "115416.107500", "115417.107500", "115418.107500", "115419.107500", "115420.107500", "115421.107500", "115422.107500", "115423.107500", "115424.107500", "115425.107500", "115426.107500", "115427.107500", "115428.107500", "115429.107500", "115430.107500", "115431.107500", "115432.107500", "115433.107500", "115434.107500", "115435.107500", "115436.107500", "115437.107500", "115438.107500", "115439.107500", "115440.107500", "115441.107500", "115442.107500", "115443.107500", "115444.107500", "115445.107500", "115446.107500", "115447.107500", "115448.107500", "115449.107500", "115450.107500", "115451.107500", "115452.107500", "115453.107500", "115454.107500", "115455.107500", "115456.107500", "115457.107500", "115458.107500", "115459.107500", "115500.107500", "115501.107500", "115502.107500", "115503.107500", "115504.107500", "115505.107500", "115506.107500", "115507.107500", "115508.107500", "115509.107500", "115510.107500", "115511.107500", "115512.107500", "115513.107500", "115514.107500", "115515.107500", "115516.107500", "115517.107500", "115518.107500", "115519.107500", "115520.107500", "115521.107500", "115522.107500", "115523.107500", "115524.107500", "115525.107500", "115526.107500", "115527.107500", "115528.107500", "115529.107500", "115530.107500", "115531.107500", "115532.107500", "115533.107500", "115534.107500", "115535.107500", "115536.107500", "115537.107500", "115538.107500", "115539.107500", "115540.107500", "115541.107500", "115542.107500", "115543.107500", "115544.107500", "115545.107500", "115546.107500", "115547.107500", "115548.107500", "115549.107500", "115550.107500", "115551.107500", "115552.107500", "115553.107500", "115554.107500", "115555.107500", "115556.107500", "115557.107500", "115558.107500", "115559.107500", "115600.107500", "115601.107500", "115602.107500", "115603.107500", "115604.107500", "115605.107500", "115606.107500", "115607.107500", "115608.107500", "115609.107500", "115610.107500", "115611.107500", "115612.107500", "115613.107500", "115614.107500", "115615.107500", "115616.107500", "115617.107500", "115618.107500", "115619.107500", "115620.107500", "115621.107500", "115622.107500", "115623.107500", "115624.107500", "115625.107500", "115626.107500", "115627.107500", "115628.107500", "115629.107500", "115630.107500", "115631.107500", "115632.107500", "115633.107500", "115634.107500", "115635.107500", "115636.107500", "115637.107500", "115638.107500", "115639.107500", "115640.107500", "115641.107500", "115642.107500", "115643.107500", "115644.107500", "115645.107500", "115646.107500", "115647.107500", "115648.107500", "115649.107500", "115650.107500", "115651.107500", "115652.107500", "115653.107500", "115654.107500", "115655.107500", "115656.107500", "115657.107500", "115658.107500", "115659.107500"],
      "ContentTime": ["114806.044000", "114806.912000", "114807.930000", "114808.879000", "114809.921000", "114810.873000", "114811.870000", "114812.904000", "114813.882000", "114814.935000", "114815.893000", "114816.866000", "114817.881000", "114818.863000", "114819.866000", "114820.904000", "114821.872000", "114822.884000", "114823.890000", "114824.903000", "114825.856000", "114826.899000", "114827.882000", "114828.896000", "114829.866000", "114830.866000", "114831.896000", "114832.877000", "114833.875000", "114834.859000", "114835.910000", "114836.871000", "114837.921000", "114838.872000", "114839.879000", "114840.876000", "114841.892000", "114842.897000", "114843.913000", "114844.885000", "114845.898000", "114846.882000", "114847.976000", "114848.900000", "114849.886000", "114850.904000", "114851.909000", "114852.886000", "114853.921000", "114854.876000", "114855.868000", "114856.886000", "114857.889000", "114858.883000", "114859.917000", "114900.904000", "114901.920000", "114902.905000", "114903.901000", "114904.950000", "114905.890000", "114906.900000", "114907.889000", "114908.854000", "114909.887000", "114910.877000", "114911.932000", "114912.904000", "114913.886000", "114914.882000", "114915.900000", "114916.876000", "114917.871000", "114918.889000", "114919.868000", "114920.865000", "114921.901000", "114922.868000", "114923.870000", "114924.888000", "114925.862000", "114926.891000", "114927.877000", "114928.866000", "114929.894000", "114930.888000", "114931.871000", "114932.863000", "114933.853000", "114934.943000", "114935.894000", "114936.889000", "114937.847000", "114938.845000", "114939.846000", "114940.874000", "114941.885000", "114942.867000", "114943.889000", "114944.912000", "114945.894000", "114946.874000", "114947.880000", "114948.876000", "114949.873000", "114950.881000", "114951.873000", "114952.885000", "114953.859000", "114954.902000", "114955.886000", "114956.873000", "114957.944000", "114958.910000", "114959.835000", "115000.886000", "115001.936000", "115002.902000", "115003.878000", "115004.875000", "115005.905000", "115006.885000", "115007.888000", "115008.907000", "115009.881000", "115010.957000", "115011.876000", "115012.905000", "115013.896000", "115014.882000", "115015.888000", "115016.865000", "115017.907000", "115018.872000", "115019.879000", "115020.875000", "115021.880000", "115022.934000", "115023.940000", "115024.869000", "115025.857000", "115026.895000", "115027.883000", "115028.878000", "115029.878000", "115030.873000", "115031.871000", "115032.872000", "115033.892000", "115034.872000", "115035.902000", "115036.887000", "115037.889000", "115038.874000", "115039.867000", "115040.871000", "115041.892000", "115042.879000", "115043.937000", "115044.864000", "115045.891000", "115046.900000", "115047.913000", "115048.940000", "115049.885000", "115050.892000", "115051.866000", "115052.910000", "115053.880000", "115054.875000", "115055.886000", "115056.871000", "115057.879000", "115058.913000", "115059.863000", "115100.914000", "115101.893000", "115102.876000", "115103.881000", "115104.851000", "115105.860000", "115106.863000", "115107.888000", "115108.890000", "115109.924000", "115110.886000", "115111.886000", "115112.873000", "115113.879000", "115114.895000", "115115.882000", "115116.886000", "115117.887000", "115118.855000", "115119.880000", "115120.877000", "115121.878000", "115122.890000", "115123.907000", "115124.885000", "115125.906000", "115126.872000", "115127.877000", "115128.890000", "115129.937000", "115130.941000", "115131.896000", "115132.888000", "115133.950000", "115134.883000", "115135.877000", "115136.865000", "115137.872000", "115138.880000", "115139.879000", "115140.883000", "115141.945000", "115142.905000", "115143.890000", "115144.867000", "115145.894000", "115146.870000", "115147.866000", "115148.897000", "115149.903000", "115150.902000", "115151.893000", "115152.915000", "115153.899000", "115154.852000", "115155.893000", "115156.859000", "115157.906000", "115158.883000", "115159.881000", "115200.884000", "115201.885000", "115202.885000", "115203.899000", "115204.894000", "115205.888000", "115206.864000", "115207.913000", "115208.913000", "115209.897000", "115210.889000", "115211.878000", "115212.884000", "115213.904000", "115214.886000", "115215.882000", "115216.878000", "115217.896000", "115218.898000", "115219.876000", "115220.900000", "115221.887000", "115222.897000", "115223.888000", "115224.919000", "115225.901000", "115226.914000", "115227.901000", "115228.892000", "115229.879000", "115230.882000", "115231.933000", "115232.918000", "115233.889000", "115234.888000", "115235.876000", "115236.892000", "115237.895000", "115238.939000", "115239.992000", "115240.949000", "115241.889000", "115242.930000", "115243.892000", "115244.873000", "115245.933000", "115246.900000", "115247.890000", "115248.910000", "115249.895000", "115250.879000", "115251.895000", "115252.901000", "115253.891000", "115254.904000", "115255.910000", "115256.884000", "115257.886000", "115258.870000", "115259.879000", "115300.876000", "115301.879000", "115302.894000", "115303.899000", "115304.919000", "115305.883000", "115306.860000", "115307.919000", "115308.893000", "115309.880000", "115310.888000", "115311.908000", "115312.905000", "115313.896000", "115314.867000", "115315.893000", "115316.885000", "115317.901000", "115318.890000", "115319.894000", "115320.876000", "115321.920000", "115322.875000", "115323.904000", "115324.879000", "115325.885000", "115326.877000", "115327.884000", "115328.891000", "115329.916000", "115330.882000", "115331.877000", "115332.896000", "115333.869000", "115334.896000", "115335.906000", "115336.943000", "115337.885000", "115338.873000", "115339.939000", "115340.874000", "115341.865000", "115342.890000", "115343.879000", "115344.863000", "115345.875000", "115346.892000", "115347.876000", "115348.860000", "115349.859000", "115350.854000", "115351.884000", "115352.841000", "115353.880000", "115354.883000", "115355.865000", "115356.868000", "115357.903000", "115358.879000", "115359.891000", "115400.863000", "115401.900000", "115402.907000", "115403.885000", "115404.910000", "115405.893000", "115406.885000", "115407.904000", "115408.873000", "115409.883000", "115410.870000", "115411.903000", "115412.892000", "115413.888000", "115414.888000", "115415.880000", "115416.887000", "115417.898000", "115418.867000", "115419.879000", "115420.862000", "115421.911000", "115422.937000", "115423.893000", "115424.915000", "115425.847000", "115426.864000", "115427.868000", "115428.892000", "115429.875000", "115430.909000", "115431.875000", "115432.875000", "115433.904000", "115434.859000", "115435.884000", "115436.876000", "115437.869000", "115438.867000", "115439.892000", "115440.926000", "115441.901000", "115442.882000", "115443.874000", "115444.875000", "115445.897000", "115446.915000", "115447.904000", "115448.850000", "115449.870000", "115450.894000", "115451.877000", "115452.881000", "115453.884000", "115454.884000", "115455.873000", "115456.867000", "115457.980000", "115458.911000", "115459.935000", "115500.924000", "115501.876000", "115502.895000", "115503.898000", "115504.886000", "115505.892000", "115506.887000", "115507.916000", "115508.851000", "115509.904000", "115510.901000", "115511.874000", "115512.883000", "115513.840000", "115514.898000", "115515.917000", "115516.896000", "115517.887000", "115518.883000", "115519.884000", "115520.879000", "115521.862000", "115522.910000", "115523.904000", "115524.953000", "115525.950000", "115526.912000", "115527.894000", "115528.879000", "115529.854000", "115530.869000", "115531.843000", "115532.882000", "115533.885000", "115534.879000", "115535.915000", "115536.881000", "115537.886000", "115538.889000", "115539.871000", "115540.891000", "115541.907000", "115542.885000", "115543.948000", "115544.918000", "115545.894000", "115546.876000", "115547.891000", "115548.884000", "115549.891000", "115550.880000", "115551.859000", "115552.885000", "115553.876000", "115554.892000", "115555.950000", "115556.880000", "115557.921000", "115558.896000", "115559.878000", "115600.864000", "115601.876000", "115602.915000", "115603.898000", "115604.903000", "115605.842000", "115606.871000", "115607.847000", "115608.871000", "115609.882000", "115610.879000", "115611.894000", "115612.866000", "115613.886000", "115614.877000", "115615.872000", "115616.864000", "115617.902000", "115618.890000", "115619.894000", "115620.883000", "115621.871000", "115622.930000", "115623.946000", "115624.977000", "115625.936000", "115626.937000", "115627.938000", "115628.954000", "115629.922000", "115630.925000", "115631.935000", "115632.917000", "115633.928000", "115634.923000", "115635.926000", "115636.914000", "115637.926000", "115638.937000", "115639.975000", "115640.988000", "115641.933000", "115642.927000", "115643.936000", "115644.914000", "115645.969000", "115646.972000", "115647.987000", "115648.939000", "115649.915000", "115650.991000", "115651.920000", "115652.908000", "115653.916000", "115654.908000", "115655.920000", "115656.926000", "115657.966000", "115658.913000", "115659.911000"],
