{
  "AcquisitionMatrixPE": 96,
  "AcquisitionNumber": 1,
  "AcquisitionTime": "11:28:29.267500",
  "BandwidthPerPixelPhaseEncode": 18.939,
  "BaseResolution": 96,
  "BodyPartExamined": "BRAIN",
  "ConsistencyInfo": "N4_VE11C_LATEST_20160120",
  "ConversionSoftware": "dcm2niix",
  "ConversionSoftwareVersion": "v1.0.20190902",
  "DerivedVendorReportedEchoSpacing": 0.000550011,
  "DeviceSerialNumber": "66112",
  "DwellTime": 2.2e-06,
  "EchoTime": 0.033,
  "EchoTrainLength": 96,
  "EffectiveEchoSpacing": 0.000550011,
  "FlipAngle": 59,
  "ImageOrientationPatientDICOM": [0.996395, -0.0169187, 0.0831351, 0.0203495, 0.998968, -0.0405955],
  "ImageType": [
    "ORIGINAL",
    "PRIMARY",
    "FMRI",
    "NONE",
    "ND",
    "NORM",
    "MOSAIC"
],
  "ImagingFrequency": 123.252,
  "InPlanePhaseEncodingDirectionDICOM": "COL",
  "InstitutionAddress": "Maynard_3_Hanover_NH_US_03755",
  "InstitutionName": "Dartmouth_College_-_PBS",
  "InstitutionalDepartmentName": "Department",
  "MRAcquisitionType": "2D",
  "MagneticFieldStrength": 3,
  "Manufacturer": "Siemens",
  "ManufacturersModelName": "Prisma",
  "Modality": "MR",
  "MultibandAccelerationFactor": 4,
  "PartialFourier": 1,
  "PatientPosition": "HFS",
  "PercentPhaseFOV": 100,
  "PhaseEncodingDirection": "j-",
  "PhaseEncodingSteps": 96,
  "PhaseResolution": 1,
  "PixelBandwidth": 2365,
  "ProcedureStepDescription": "Gobbini_Matteo_1037_budapest",
  "ProtocolName": "func_run-01_task-movie",
  "PulseSequenceDetails": "%SiemensSeq%_ep2d_bold",
  "ReceiveCoilActiveElements": "HEA;HEP",
  "ReceiveCoilName": "Head_32",
  "ReconMatrixPE": 96,
  "RefLinesPE": 12,
  "RepetitionTime": 1,
  "SAR": 0.0574152,
  "ScanOptions": "FS",
  "ScanningSequence": "EP",
  "SequenceName": "_epfid2d1_96",
  "SequenceVariant": "SK",
  "SeriesDescription": "func_run-01_task-movie",
  "SeriesNumber": 8,
  "ShimSetting": [4172, -7687, -7312, 723, -4, -61, -11, 21],
  "SliceThickness": 2.5,
  "SliceTiming": [0.735, 0, 0.49, 0.08, 0.57, 0.1625, 0.6525, 0.325, 0.815, 0.4075, 0.8975, 0.245, 0.735, 0, 0.49, 0.08, 0.57, 0.1625, 0.6525, 0.325, 0.815, 0.4075, 0.8975, 0.245, 0.735, 0, 0.49, 0.08, 0.57, 0.1625, 0.6525, 0.325, 0.815, 0.4075, 0.8975, 0.245, 0.735, 0, 0.49, 0.08, 0.57, 0.1625, 0.6525, 0.325, 0.815, 0.4075, 0.8975, 0.245],
  "SoftwareVersions": "syngo_MR_E11",
  "SpacingBetweenSlices": 2.5,
  "StationName": "AWP66112",
  "TaskName": "movie",
  "TotalReadoutTime": 0.0522511,
  "TxRefAmp": 236.873,
  "dcmmeta_affine": [
    [-2.4909865856170654, 0.05087384954094887, 0.20590628683567047, 114.02253723144531],
    [0.042296793311834335, 2.4974210262298584, -0.10535214841365814, -105.1718978881836],
    [0.20783774554729462, 0.1014886423945427, 2.4892778396606445, -80.77529907226562],
    [0.0, 0.0, 0.0, 1.0]
],
  "dcmmeta_reorient_transform": [
    [0.0, -1.0, 0.0, 95.0],
    [1.0, 0.0, 0.0, 0.0],
    [0.0, 0.0, 1.0, 0.0],
    [0.0, 0.0, 0.0, 1.0]
],
  "dcmmeta_shape": [96, 96, 48, 598],
  "dcmmeta_slice_dim": 2,
  "dcmmeta_version": 0.6,
  "global": {
    "const": {
      "AccessionNumber": "A001249",
      "AcquisitionMatrix": [96, 0, 0, 96],
      "AngioFlag": "N",
      "BitsAllocated": 16,
      "BitsStored": 12,
      "BodyPartExamined": "BRAIN",
      "Columns": 672,
      "EchoNumbers": 1,
      "EchoTime": 33.0,
      "EchoTrainLength": 96,
      "FlipAngle": 59.0,
      "HighBit": 11,
      "ImageOrientationPatient": [0.99639465715042, -0.016918717777, 0.08313509602376, 0.02034953908578, 0.99896842047186, -0.0405954573684],
      "ImagePositionPatient": [-850.91137513405, -839.15888901186, -101.7624178694],
      "ImageType": [
        "ORIGINAL",
        "PRIMARY",
        "FMRI",
        "NONE",
        "ND",
        "NORM",
        "MOSAIC"
],
      "ImagedNucleus": "1H",
      "ImagingFrequency": 123.25231,
      "InPlanePhaseEncodingDirection": "COL",
      "MRAcquisitionType": "2D",
      "MagneticFieldStrength": 3.0,
      "Manufacturer": "SIEMENS",
      "ManufacturerModelName": "Prisma",
      "Modality": "MR",
      "NumberOfAverages": 1.0,
      "NumberOfPhaseEncodingSteps": 96,
      "PercentPhaseFieldOfView": 100.0,
      "PercentSampling": 100.0,
      "PerformedProcedureStepStartTime": "111113.347000",
      "PhotometricInterpretation": "MONOCHROME2",
      "PixelBandwidth": 2365.0,
      "PixelRepresentation": 0,
      "PixelSpacing": [2.5, 2.5],
      "ProtocolName": "func_run-01_task-movie",
      "RepetitionTime": 1000.0,
      "Rows": 672,
      "SAR": 0.05741520507083,
      "SamplesPerPixel": 1,
      "ScanOptions": "FS",
      "ScanningSequence": "EP",
      "SequenceName": "*epfid2d1_96",
      "SequenceVariant": "SK",
      "SeriesDescription": "func_run-01_task-movie",
      "SeriesNumber": 8,
      "SeriesTime": "112830.993000",
      "SliceLocation": -66.605644092608,
      "SliceThickness": 2.5,
      "SmallestImagePixelValue": 0,
      "SoftwareVersions": "syngo MR E11",
      "SpacingBetweenSlices": 2.5000000653608,
      "SpecificCharacterSet": "ISO_IR 100",
      "StudyID": "2",
      "StudyTime": "111113.306000",
      "TransmitCoilName": "Body",
      "VariableFlipAngleFlag": "N",
      "WindowCenterWidthExplanation": "Algo1",
      "dBdt": 0.0},
    "slices": {}
  },
  "time": {
    "samples": {
      "AcquisitionNumber": [1, 2, 3, 4, 5, 6, 7, 8, 9, 10, 11, 12, 13, 14, 15, 16, 17, 18, 19, 20, 21, 22, 23, 24, 25, 26, 27, 28, 29, 30, 31, 32, 33, 34, 35, 36, 37, 38, 39, 40, 41, 42, 43, 44, 45, 46, 47, 48, 49, 50, 51, 52, 53, 54, 55, 56, 57, 58, 59, 60, 61, 62, 63, 64, 65, 66, 67, 68, 69, 70, 71, 72, 73, 74, 75, 76, 77, 78, 79, 80, 81, 82, 83, 84, 85, 86, 87, 88, 89, 90, 91, 92, 93, 94, 95, 96, 97, 98, 99, 100, 101, 102, 103, 104, 105, 106, 107, 108, 109, 110, 111, 112, 113, 114, 115, 116, 117, 118, 119, 120, 121, 122, 123, 124, 125, 126, 127, 128, 129, 130, 131, 132, 133, 134, 135, 136, 137, 138, 139, 140, 141, 142, 143, 144, 145, 146, 147, 148, 149, 150, 151, 152, 153, 154, 155, 156, 157, 158, 159, 160, 161, 162, 163, 164, 165, 166, 167, 168, 169, 170, 171, 172, 173, 174, 175, 176, 177, 178, 179, 180, 181, 182, 183, 184, 185, 186, 187, 188, 189, 190, 191, 192, 193, 194, 195, 196, 197, 198, 199, 200, 201, 202, 203, 204, 205, 206, 207, 208, 209, 210, 211, 212, 213, 214, 215, 216, 217, 218, 219, 220, 221, 222, 223, 224, 225, 226, 227, 228, 229, 230, 231, 232, 233, 234, 235, 236, 237, 238, 239, 240, 241, 242, 243, 244, 245, 246, 247, 248, 249, 250, 251, 252, 253, 254, 255, 256, 257, 258, 259, 260, 261, 262, 263, 264, 265, 266, 267, 268, 269, 270, 271, 272, 273, 274, 275, 276, 277, 278, 279, 280, 281, 282, 283, 284, 285, 286, 287, 288, 289, 290, 291, 292, 293, 294, 295, 296, 297, 298, 299, 300, 301, 302, 303, 304, 305, 306, 307, 308, 309, 310, 311, 312, 313, 314, 315, 316, 317, 318, 319, 320, 321, 322, 323, 324, 325, 326, 327, 328, 329, 330, 331, 332, 333, 334, 335, 336, 337, 338, 339, 340, 341, 342, 343, 344, 345, 346, 347, 348, 349, 350, 351, 352, 353, 354, 355, 356, 357, 358, 359, 360, 361, 362, 363, 364, 365, 366, 367, 368, 369, 370, 371, 372, 373, 374, 375, 376, 377, 378, 379, 380, 381, 382, 383, 384, 385, 386, 387, 388, 389, 390, 391, 392, 393, 394, 395, 396, 397, 398, 399, 400, 401, 402, 403, 404, 405, 406, 407, 408, 409, 410, 411, 412, 413, 414, 415, 416, 417, 418, 419, 420, 421, 422, 423, 424, 425, 426, 427, 428, 429, 430, 431, 432, 433, 434, 435, 436, 437, 438, 439, 440, 441, 442, 443, 444, 445, 446, 447, 448, 449, 450, 451, 452, 453, 454, 455, 456, 457, 458, 459, 460, 461, 462, 463, 464, 465, 466, 467, 468, 469, 470, 471, 472, 473, 474, 475, 476, 477, 478, 479, 480, 481, 482, 483, 484, 485, 486, 487, 488, 489, 490, 491, 492, 493, 494, 495, 496, 497, 498, 499, 500, 501, 502, 503, 504, 505, 506, 507, 508, 509, 510, 511, 512, 513, 514, 515, 516, 517, 518, 519, 520, 521, 522, 523, 524, 525, 526, 527, 528, 529, 530, 531, 532, 533, 534, 535, 536, 537, 538, 539, 540, 541, 542, 543, 544, 545, 546, 547, 548, 549, 550, 551, 552, 553, 554, 555, 556, 557, 558, 559, 560, 561, 562, 563, 564, 565, 566, 567, 568, 569, 570, 571, 572, 573, 574, 575, 576, 577, 578, 579, 580, 581, 582, 583, 584, 585, 586, 587, 588, 589, 590, 591, 592, 593, 594, 595, 596, 597, 598],
      "AcquisitionTime": ["112829.267500", "112830.267500", "112831.267500", "112832.267500", "112833.267500", "112834.267500", "112835.267500", "112836.267500", "112837.267500", "112838.267500", "112839.267500", "112840.267500", "112841.267500", "112842.267500", "112843.267500", "112844.267500", "112845.267500", "112846.267500", "112847.267500", "112848.267500", "112849.267500", "112850.267500", "112851.267500", "112852.267500", "112853.267500", "112854.267500", "112855.267500", "112856.267500", "112857.267500", "112858.267500", "112859.267500", "112900.267500", "112901.267500", "112902.267500", "112903.267500", "112904.267500", "112905.267500", "112906.267500", "112907.267500", "112908.267500", "112909.267500", "112910.267500", "112911.267500", "112912.267500", "112913.267500", "112914.267500", "112915.267500", "112916.267500", "112917.267500", "112918.267500", "112919.267500", "112920.267500", "112921.267500", "112922.267500", "112923.267500", "112924.267500", "112925.267500", "112926.267500", "112927.267500", "112928.267500", "112929.267500", "112930.267500", "112931.267500", "112932.267500", "112933.267500", "112934.267500", "112935.267500", "112936.267500", "112937.267500", "112938.267500", "112939.267500", "112940.267500", "112941.267500", "112942.267500", "112943.267500", "112944.267500", "112945.267500", "112946.267500", "112947.267500", "112948.267500", "112949.267500", "112950.267500", "112951.267500", "112952.267500", "112953.267500", "112954.267500", "112955.267500", "112956.267500", "112957.267500", "112958.267500", "112959.267500", "113000.267500", "113001.267500", "113002.267500", "113003.267500", "113004.267500", "113005.267500", "113006.267500", "113007.267500", "113008.267500", "113009.267500", "113010.267500", "113011.267500", "113012.267500", "113013.267500", "113014.267500", "113015.267500", "113016.267500", "113017.267500", "113018.267500", "113019.267500", "113020.267500", "113021.267500", "113022.267500", "113023.267500", "113024.267500", "113025.267500", "113026.267500", "113027.267500", "113028.267500", "113029.267500", "113030.267500", "113031.267500", "113032.267500", "113033.267500", "113034.267500", "113035.267500", "113036.267500", "113037.267500", "113038.267500", "113039.267500", "113040.267500", "113041.267500", "113042.267500", "113043.267500", "113044.267500", "113045.267500", "113046.267500", "113047.267500", "113048.267500", "113049.267500", "113050.267500", "113051.267500", "113052.267500", "113053.267500", "113054.267500", "113055.267500", "113056.267500", "113057.267500", "113058.267500", "113059.267500", "113100.267500", "113101.267500", "113102.267500", "113103.267500", "113104.267500", "113105.267500", "113106.267500", "113107.267500", "113108.267500", "113109.267500", "113110.267500", "113111.267500", "113112.267500", "113113.267500", "113114.267500", "113115.267500", "113116.267500", "113117.267500", "113118.267500", "113119.267500", "113120.267500", "113121.267500", "113122.267500", "113123.267500", "113124.267500", "113125.267500", "113126.267500", "113127.267500", "113128.267500", "113129.267500", "113130.267500", "113131.267500", "113132.267500", "113133.267500", "113134.267500", "113135.267500", "113136.267500", "113137.267500", "113138.267500", "113139.267500", "113140.267500", "113141.267500", "113142.267500", "113143.267500", "113144.267500", "113145.267500", "113146.267500", "113147.267500", "113148.267500", "113149.267500", "113150.267500", "113151.267500", "113152.267500", "113153.267500", "113154.267500", "113155.267500", "113156.267500", "113157.267500", "113158.267500", "113159.267500", "113200.267500", "113201.267500", "113202.267500", "113203.267500", "113204.267500", "113205.267500", "113206.267500", "113207.267500", "113208.267500", "113209.267500", "113210.267500", "113211.267500", "113212.267500", "113213.267500", "113214.267500", "113215.267500", "113216.267500", "113217.267500", "113218.267500", "113219.267500", "113220.267500", "113221.267500", "113222.267500", "113223.267500", "113224.267500", "113225.267500", "113226.267500", "113227.267500", "113228.267500", "113229.267500", "113230.267500", "113231.267500", "113232.267500", "113233.267500", "113234.267500", "113235.267500", "113236.267500", "113237.267500", "113238.267500", "113239.267500", "113240.267500", "113241.267500", "113242.267500", "113243.267500", "113244.267500", "113245.267500", "113246.267500", "113247.267500", "113248.267500", "113249.267500", "113250.267500", "113251.267500", "113252.267500", "113253.267500", "113254.267500", "113255.267500", "113256.267500", "113257.267500", "113258.267500", "113259.267500", "113300.267500", "113301.267500", "113302.267500", "113303.267500", "113304.267500", "113305.267500", "113306.267500", "113307.267500", "113308.267500", "113309.267500", "113310.267500", "113311.267500", "113312.267500", "113313.267500", "113314.267500", "113315.267500", "113316.267500", "113317.267500", "113318.267500", "113319.267500", "113320.267500", "113321.267500", "113322.267500", "113323.267500", "113324.267500", "113325.267500", "113326.267500", "113327.267500", "113328.267500", "113329.267500", "113330.267500", "113331.267500", "113332.267500", "113333.267500", "113334.267500", "113335.267500", "113336.267500", "113337.267500", "113338.267500", "113339.267500", "113340.267500", "113341.267500", "113342.267500", "113343.267500", "113344.267500", "113345.267500", "113346.267500", "113347.267500", "113348.267500", "113349.267500", "113350.267500", "113351.267500", "113352.267500", "113353.267500", "113354.267500", "113355.267500", "113356.267500", "113357.267500", "113358.267500", "113359.267500", "113400.267500", "113401.267500", "113402.267500", "113403.267500", "113404.267500", "113405.267500", "113406.267500", "113407.267500", "113408.267500", "113409.267500", "113410.267500", "113411.267500", "113412.267500", "113413.267500", "113414.267500", "113415.267500", "113416.267500", "113417.267500", "113418.267500", "113419.267500", "113420.267500", "113421.267500", "113422.267500", "113423.267500", "113424.267500", "113425.267500", "113426.267500", "113427.267500", "113428.267500", "113429.267500", "113430.267500", "113431.267500", "113432.267500", "113433.267500", "113434.267500", "113435.267500", "113436.267500", "113437.267500", "113438.267500", "113439.267500", "113440.267500", "113441.267500", "113442.267500", "113443.267500", "113444.267500", "113445.267500", "113446.267500", "113447.267500", "113448.267500", "113449.267500", "113450.267500", "113451.267500", "113452.267500", "113453.267500", "113454.267500", "113455.267500", "113456.267500", "113457.267500", "113458.267500", "113459.267500", "113500.267500", "113501.267500", "113502.267500", "113503.267500", "113504.267500", "113505.267500", "113506.267500", "113507.267500", "113508.267500", "113509.267500", "113510.267500", "113511.267500", "113512.267500", "113513.267500", "113514.267500", "113515.267500", "113516.267500", "113517.267500", "113518.267500", "113519.267500", "113520.267500", "113521.267500", "113522.267500", "113523.267500", "113524.267500", "113525.267500", "113526.267500", "113527.267500", "113528.267500", "113529.267500", "113530.267500", "113531.267500", "113532.267500", "113533.267500", "113534.267500", "113535.267500", "113536.267500", "113537.267500", "113538.267500", "113539.267500", "113540.267500", "113541.267500", "113542.267500", "113543.267500", "113544.267500", "113545.267500", "113546.267500", "113547.267500", "113548.267500", "113549.267500", "113550.267500", "113551.267500", "113552.267500", "113553.267500", "113554.267500", "113555.267500", "113556.267500", "113557.267500", "113558.267500", "113559.267500", "113600.267500", "113601.267500", "113602.267500", "113603.267500", "113604.267500", "113605.267500", "113606.267500", "113607.267500", "113608.267500", "113609.267500", "113610.267500", "113611.267500", "113612.267500", "113613.267500", "113614.267500", "113615.267500", "113616.267500", "113617.267500", "113618.267500", "113619.267500", "113620.267500", "113621.267500", "113622.267500", "113623.267500", "113624.267500", "113625.267500", "113626.267500", "113627.267500", "113628.267500", "113629.267500", "113630.267500", "113631.267500", "113632.267500", "113633.267500", "113634.267500", "113635.267500", "113636.267500", "113637.267500", "113638.267500", "113639.267500", "113640.267500", "113641.267500", "113642.267500", "113643.267500", "113644.267500", "113645.267500", "113646.267500", "113647.267500", "113648.267500", "113649.267500", "113650.267500", "113651.267500", "113652.267500", "113653.267500", "113654.267500", "113655.267500", "113656.267500", "113657.267500", "113658.267500", "113659.267500", "113700.267500", "113701.267500", "113702.267500", "113703.267500", "113704.267500", "113705.267500", "113706.267500", "113707.267500", "113708.267500", "113709.267500", "113710.267500", "113711.267500", "113712.267500", "113713.267500", "113714.267500", "113715.267500", "113716.267500", "113717.267500", "113718.267500", "113719.267500", "113720.267500", "113721.267500", "113722.267500", "113723.267500", "113724.267500", "113725.267500", "113726.267500", "113727.267500", "113728.267500", "113729.267500", "113730.267500", "113731.267500", "113732.267500", "113733.267500", "113734.267500", "113735.267500", "113736.267500", "113737.267500", "113738.267500", "113739.267500", "113740.267500", "113741.267500", "113742.267500", "113743.267500", "113744.267500", "113745.267500", "113746.267500", "113747.267500", "113748.267500", "113749.267500", "113750.267500", "113751.267500", "113752.267500", "113753.267500", "113754.267500", "113755.267500", "113756.267500", "113757.267500", "113758.267500", "113759.267500", "113800.267500", "113801.267500", "113802.267500", "113803.267500", "113804.267500", "113805.267500", "113806.267500", "113807.267500", "113808.267500", "113809.267500", "113810.267500", "113811.267500", "113812.267500", "113813.267500", "113814.267500", "113815.267500", "113816.267500", "113817.267500", "113818.267500", "113819.267500", "113820.267500", "113821.267500", "113822.267500", "113823.267500", "113824.267500", "113825.267500", "113826.267500"],
      "ContentTime": ["112830.997000", "112831.857000", "112832.885000", "112833.902000", "112834.867000", "112835.865000", "112836.850000", "112837.858000", "112838.915000", "112839.863000", "112840.860000", "112841.875000", "112842.887000", "112843.865000", "112844.884000", "112845.895000", "112846.862000", "112847.859000", "112848.879000", "112849.897000", "112850.876000", "112851.879000", "112852.860000", "112853.855000", "112854.851000", "112855.864000", "112856.840000", "112857.866000", "112858.866000", "112859.868000", "112900.832000", "112901.819000", "112902.838000", "112903.829000", "112904.848000", "112905.845000", "112906.842000", "112907.839000", "112908.856000", "112909.836000", "112910.843000", "112911.843000", "112912.826000", "112913.844000", "112914.884000", "112915.821000", "112916.839000", "112917.862000", "112918.843000", "112919.831000", "112920.851000", "112921.854000", "112922.865000", "112923.843000", "112924.851000", "112925.862000", "112926.817000", "112927.815000", "112928.832000", "112929.863000", "112930.877000", "112931.841000", "112932.853000", "112933.844000", "112934.839000", "112935.849000", "112936.820000", "112937.834000", "112938.895000", "112939.842000", "112940.851000", "112941.847000", "112942.868000", "112943.856000", "112944.827000", "112945.891000", "112946.858000", "112947.848000", "112948.833000", "112949.849000", "112950.842000", "112951.875000", "112952.864000", "112953.859000", "112954.892000", "112955.834000", "112956.846000", "112957.845000", "112958.852000", "112959.873000", "113000.847000", "113001.854000", "113002.914000", "113003.874000", "113004.897000", "113005.848000", "113006.842000", "113007.838000", "113008.873000", "113009.918000", "113010.860000", "113011.854000", "113012.855000", "113013.848000", "113014.841000", "113015.846000", "113016.846000", "113017.845000", "113018.894000", "113019.853000", "113020.886000", "113021.851000", "113022.839000", "113023.891000", "113024.855000", "113025.886000", "113026.903000", "113027.857000", "113028.872000", "113029.872000", "113030.829000", "113031.835000", "113032.873000", "113033.851000", "113034.836000", "113035.848000", "113036.845000", "113037.891000", "113038.836000", "113039.858000", "113040.842000", "113041.883000", "113042.872000", "113043.845000", "113044.842000", "113045.926000", "113046.924000", "113047.904000", "113048.867000", "113049.850000", "113050.863000", "113051.872000", "113052.868000", "113053.837000", "113054.870000", "113055.844000", "113056.837000", "113057.808000", "113058.891000", "113059.850000", "113100.851000", "113101.866000", "113102.808000", "113103.861000", "113104.846000", "113105.847000", "113106.870000", "113107.859000", "113108.845000", "113109.842000", "113110.886000", "113111.842000", "113112.863000", "113113.836000", "113114.854000", "113115.862000", "113116.836000", "113117.853000", "113118.906000", "113119.916000", "113120.855000", "113121.853000", "113122.855000", "113123.870000", "113124.835000", "113125.845000", "113126.889000", "113127.835000", "113128.845000", "113129.878000", "113130.876000", "113131.879000", "113132.846000", "113133.871000", "113134.853000", "113135.839000", "113136.844000", "113137.886000", "113138.848000", "113139.855000", "113140.855000", "113141.857000", "113142.837000", "113143.859000", "113144.859000", "113145.867000", "113146.842000", "113147.856000", "113148.891000", "113149.879000", "113150.848000", "113151.836000", "113152.862000", "113153.878000", "113154.838000", "113155.851000", "113156.842000", "113157.850000", "113158.855000", "113159.894000", "113200.835000", "113201.851000", "113202.872000", "113203.848000", "113204.858000", "113205.852000", "113206.808000", "113207.864000", "113208.859000", "113209.860000", "113210.836000", "113211.903000", "113212.853000", "113213.885000", "113214.847000", "113215.847000", "113216.888000", "113217.850000", "113218.847000", "113219.883000", "113220.845000", "113221.867000", "113222.858000", "113223.836000", "113224.849000", "113225.852000", "113226.842000", "113227.853000", "113228.888000", "113229.831000", "113230.814000", "113231.865000", "113232.862000", "113233.844000", "113234.847000", "113235.848000", "113236.857000", "113237.853000", "113238.858000", "113239.854000", "113240.874000", "113241.843000", "113242.861000", "113243.870000", "113244.860000", "113245.846000", "113246.864000", "113247.875000", "113248.843000", "113249.849000", "113250.833000", "113251.856000", "113252.840000", "113253.899000", "113254.837000", "113255.834000", "113256.847000", "113257.836000", "113258.839000", "113259.849000", "113300.832000", "113301.860000", "113302.833000", "113303.847000", "113304.854000", "113305.852000", "113306.863000", "113307.851000", "113308.852000", "113309.836000", "113310.843000", "113311.861000", "113312.837000", "113313.862000", "113314.851000", "113315.844000", "113316.887000", "113317.873000", "113318.871000", "113319.857000", "113320.922000", "113321.855000", "113322.878000", "113323.928000", "113324.854000", "113325.833000", "113326.862000", "113327.851000", "113328.840000", "113329.852000", "113330.839000", "113331.871000", "113332.848000", "113333.830000", "113334.856000", "113335.833000", "113336.852000", "113337.841000", "113338.833000", "113339.846000", "113340.838000", "113341.874000", "113342.846000", "113343.845000", "113344.853000", "113345.851000", "113346.851000", "113347.815000", "113348.826000", "113349.805000", "113350.847000", "113351.834000", "113352.863000", "113353.844000", "113354.845000", "113355.836000", "113356.841000", "113357.877000", "113358.862000", "113359.888000", "113400.858000", "113401.853000", "113402.853000", "113403.867000", "113404.845000", "113405.869000", "113406.866000", "113407.850000", "113408.838000", "113409.852000", "113410.852000", "113411.865000", "113412.838000", "113413.831000", "113414.842000", "113415.855000", "113416.825000", "113417.825000", "113418.836000", "113419.887000", "113420.834000", "113421.867000", "113422.851000", "113423.826000", "113424.912000", "113425.846000", "113426.845000", "113427.833000", "113428.842000", "113429.877000", "113430.846000", "113431.837000", "113432.841000", "113433.841000", "113434.863000", "113435.866000", "113436.829000", "113437.840000", "113438.863000", "113439.850000", "113440.826000", "113441.849000", "113442.858000", "113443.839000", "113444.841000", "113445.841000", "113446.844000", "113447.855000", "113448.888000", "113449.867000", "113450.852000", "113451.835000", "113452.855000", "113453.856000", "113454.851000", "113455.842000", "113456.828000", "113457.864000", "113458.831000", "113459.844000", "113500.843000", "113501.831000", "113502.840000", "113503.886000", "113504.851000", "113505.843000", "113506.858000", "113507.846000", "113508.843000", "113509.872000", "113510.867000", "113511.897000", "113512.863000", "113513.843000", "113514.849000", "113515.856000", "113516.850000", "113517.833000", "113518.826000", "113519.852000", "113520.861000", "113521.851000", "113522.843000", "113523.861000", "113524.853000", "113525.877000", "113526.848000", "113527.829000", "113528.890000", "113529.849000", "113530.857000", "113531.836000", "113532.846000", "113533.830000", "113534.851000", "113535.841000", "113536.850000", "113537.840000", "113538.856000", "113539.866000", "113540.852000", "113541.832000", "113542.855000", "113543.842000", "113544.836000", "113545.869000", "113546.838000", "113547.835000", "113548.884000", "113549.855000", "113550.843000", "113551.843000", "113552.825000", "113553.828000", "113554.836000", "113555.853000", "113556.841000", "113557.912000", "113558.849000", "113559.838000", "113600.865000", "113601.832000", "113602.890000", "113603.830000", "113604.854000", "113605.825000", "113606.850000", "113607.849000", "113608.905000", "113609.837000", "113610.842000", "113611.909000", "113612.834000", "113613.833000", "113614.867000", "113615.852000", "113616.836000", "113617.850000", "113618.841000", "113619.883000", "113620.843000", "113621.849000", "113622.825000", "113623.837000", "113624.840000", "113625.816000", "113626.831000", "113627.835000", "113628.848000", "113629.840000", "113630.836000", "113631.857000", "113632.858000", "113633.850000", "113634.823000", "113635.863000", "113636.867000", "113637.851000", "113638.855000", "113639.847000", "113640.853000", "113641.860000", "113642.897000", "113643.857000", "113644.848000", "113645.855000", "113646.829000", "113647.817000", "113648.844000", "113649.848000", "113650.822000", "113651.863000", "113652.847000", "113653.835000", "113654.841000", "113655.890000", "113656.871000", "113657.870000", "113658.851000", "113659.846000", "113700.845000", "113701.846000", "113702.838000", "113703.837000", "113704.835000", "113705.841000", "113706.843000", "113707.841000", "113708.859000", "113709.836000", "113710.846000", "113711.808000", "113712.831000", "113713.833000", "113714.859000", "113715.853000", "113716.814000", "113717.841000", "113718.877000", "113719.857000", "113720.865000", "113721.844000", "113722.856000", "113723.888000", "113724.875000", "113725.811000", "113726.813000", "113727.840000", "113728.853000", "113729.821000", "113730.847000", "113731.838000", "113732.885000", "113733.866000", "113734.834000", "113735.866000", "113736.848000", "113737.833000", "113738.843000", "113739.828000", "113740.847000", "113741.858000", "113742.820000", "113743.833000", "113744.845000", "113745.851000", "113746.849000", "113747.830000", "113748.872000", "113749.827000", "113750.849000", "113751.888000", "113752.841000", "113753.805000", "113754.838000", "113755.846000", "113756.837000", "113757.846000", "113758.830000", "113759.853000", "113800.842000", "113801.841000", "113802.872000", "113803.858000", "113804.840000", "113805.844000", "113806.844000", "113807.843000", "113808.866000", "113809.825000", "113810.825000", "113811.848000", "113812.835000", "113813.827000", "113814.822000", "113815.850000", "113816.897000", "113817.852000", "113818.865000", "113819.832000", "113820.827000", "113821.866000", "113822.851000", "113823.827000", "113824.842000", "113825.861000", "113826.840000", "113827.884000"],
