{
  "AcquisitionMatrixPE": 96,
  "AcquisitionNumber": 1,
  "AcquisitionTime": "12:08:36.280000",
  "BandwidthPerPixelPhaseEncode": 18.939,
  "BaseResolution": 96,
  "BodyPartExamined": "BRAIN",
  "ConsistencyInfo": "N4_VE11C_LATEST_20160120",
  "ConversionSoftware": "dcm2niix",
  "ConversionSoftwareVersion": "v1.0.20190902",
  "DerivedVendorReportedEchoSpacing": 0.000550011,
  "DeviceSerialNumber": "66112",
  "DwellTime": 2.2e-06,
  "EchoTime": 0.033,
  "EchoTrainLength": 96,
  "EffectiveEchoSpacing": 0.000550011,
  "FlipAngle": 59,
  "ImageOrientationPatientDICOM": [0.996395, -0.0169187, 0.0831351, 0.0203495, 0.998968, -0.0405955],
  "ImageType": [
    "ORIGINAL",
    "PRIMARY",
    "FMRI",
    "NONE",
    "ND",
    "NORM",
    "MOSAIC"
],
  "ImagingFrequency": 123.252,
  "InPlanePhaseEncodingDirectionDICOM": "COL",
  "InstitutionAddress": "Maynard_3_Hanover_NH_US_03755",
  "InstitutionName": "Dartmouth_College_-_PBS",
  "InstitutionalDepartmentName": "Department",
  "MRAcquisitionType": "2D",
  "MagneticFieldStrength": 3,
  "Manufacturer": "Siemens",
  "ManufacturersModelName": "Prisma",
  "Modality": "MR",
  "MultibandAccelerationFactor": 4,
  "PartialFourier": 1,
  "PatientPosition": "HFS",
  "PercentPhaseFOV": 100,
  "PhaseEncodingDirection": "j-",
  "PhaseEncodingSteps": 96,
  "PhaseResolution": 1,
  "PixelBandwidth": 2365,
  "ProcedureStepDescription": "Gobbini_Matteo_1037_budapest",
  "ProtocolName": "func_run-05_task-movie",
  "PulseSequenceDetails": "%SiemensSeq%_ep2d_bold",
  "ReceiveCoilActiveElements": "HEA;HEP",
  "ReceiveCoilName": "Head_32",
  "ReconMatrixPE": 96,
  "RefLinesPE": 12,
  "RepetitionTime": 1,
  "SAR": 0.0574947,
  "ScanOptions": "FS",
  "ScanningSequence": "EP",
  "SequenceName": "_epfid2d1_96",
  "SequenceVariant": "SK",
  "SeriesDescription": "func_run-05_task-movie",
  "SeriesNumber": 36,
  "ShimSetting": [4172, -7687, -7312, 723, -4, -61, -11, 21],
  "SliceThickness": 2.5,
  "SliceTiming": [0.735, 0, 0.49, 0.0825, 0.5725, 0.165, 0.655, 0.3275, 0.8175, 0.41, 0.9, 0.245, 0.735, 0, 0.49, 0.0825, 0.5725, 0.165, 0.655, 0.3275, 0.8175, 0.41, 0.9, 0.245, 0.735, 0, 0.49, 0.0825, 0.5725, 0.165, 0.655, 0.3275, 0.8175, 0.41, 0.9, 0.245, 0.735, 0, 0.49, 0.0825, 0.5725, 0.165, 0.655, 0.3275, 0.8175, 0.41, 0.9, 0.245],
  "SoftwareVersions": "syngo_MR_E11",
  "SpacingBetweenSlices": 2.5,
  "StationName": "AWP66112",
  "TaskName": "movie",
  "TotalReadoutTime": 0.0522511,
  "TxRefAmp": 236.873,
  "dcmmeta_affine": [
    [-2.4909865856170654, 0.05087384954094887, 0.20590628683567047, 114.02253723144531],
    [0.042296793311834335, 2.4974210262298584, -0.10535214841365814, -105.1718978881836],
    [0.20783774554729462, 0.1014886423945427, 2.4892778396606445, -80.77529907226562],
    [0.0, 0.0, 0.0, 1.0]
],
  "dcmmeta_reorient_transform": [
    [0.0, -1.0, 0.0, 95.0],
    [1.0, 0.0, 0.0, 0.0],
    [0.0, 0.0, 1.0, 0.0],
    [0.0, 0.0, 0.0, 1.0]
],
  "dcmmeta_shape": [96, 96, 48, 803],
  "dcmmeta_slice_dim": 2,
  "dcmmeta_version": 0.6,
  "global": {
    "const": {
      "AccessionNumber": "A001249",
      "AcquisitionMatrix": [96, 0, 0, 96],
      "AngioFlag": "N",
      "BitsAllocated": 16,
      "BitsStored": 12,
      "BodyPartExamined": "BRAIN",
      "Columns": 672,
      "EchoNumbers": 1,
      "EchoTime": 33.0,
      "EchoTrainLength": 96,
      "FlipAngle": 59.0,
      "HighBit": 11,
      "ImageOrientationPatient": [0.99639465715042, -0.016918717777, 0.08313509602376, 0.02034953908578, 0.99896842047186, -0.0405954573684],
      "ImagePositionPatient": [-850.91137513405, -839.15888901186, -101.7624178694],
      "ImageType": [
        "ORIGINAL",
        "PRIMARY",
        "FMRI",
        "NONE",
        "ND",
        "NORM",
        "MOSAIC"
],
      "ImagedNucleus": "1H",
      "ImagingFrequency": 123.252323,
      "InPlanePhaseEncodingDirection": "COL",
      "MRAcquisitionType": "2D",
      "MagneticFieldStrength": 3.0,
      "Manufacturer": "SIEMENS",
      "ManufacturerModelName": "Prisma",
      "Modality": "MR",
      "NumberOfAverages": 1.0,
      "NumberOfPhaseEncodingSteps": 96,
      "PercentPhaseFieldOfView": 100.0,
      "PercentSampling": 100.0,
      "PerformedProcedureStepStartTime": "111113.347000",
      "PhotometricInterpretation": "MONOCHROME2",
      "PixelBandwidth": 2365.0,
      "PixelRepresentation": 0,
      "PixelSpacing": [2.5, 2.5],
      "ProtocolName": "func_run-05_task-movie",
      "RepetitionTime": 1000.0,
      "Rows": 672,
      "SAR": 0.05749470300502,
      "SamplesPerPixel": 1,
      "ScanOptions": "FS",
      "ScanningSequence": "EP",
      "SequenceName": "*epfid2d1_96",
      "SequenceVariant": "SK",
      "SeriesDescription": "func_run-05_task-movie",
      "SeriesNumber": 36,
      "SeriesTime": "120837.417000",
      "SliceLocation": -66.605644092608,
      "SliceThickness": 2.5,
      "SmallestImagePixelValue": 0,
      "SoftwareVersions": "syngo MR E11",
      "SpacingBetweenSlices": 2.5000000653608,
      "SpecificCharacterSet": "ISO_IR 100",
      "StudyID": "2",
      "StudyTime": "111113.306000",
      "TransmitCoilName": "Body",
      "VariableFlipAngleFlag": "N",
      "WindowCenterWidthExplanation": "Algo1",
      "dBdt": 0.0},
    "slices": {}
  },
  "time": {
    "samples": {
      "AcquisitionNumber": [1, 2, 3, 4, 5, 6, 7, 8, 9, 10, 11, 12, 13, 14, 15, 16, 17, 18, 19, 20, 21, 22, 23, 24, 25, 26, 27, 28, 29, 30, 31, 32, 33, 34, 35, 36, 37, 38, 39, 40, 41, 42, 43, 44, 45, 46, 47, 48, 49, 50, 51, 52, 53, 54, 55, 56, 57, 58, 59, 60, 61, 62, 63, 64, 65, 66, 67, 68, 69, 70, 71, 72, 73, 74, 75, 76, 77, 78, 79, 80, 81, 82, 83, 84, 85, 86, 87, 88, 89, 90, 91, 92, 93, 94, 95, 96, 97, 98, 99, 100, 101, 102, 103, 104, 105, 106, 107, 108, 109, 110, 111, 112, 113, 114, 115, 116, 117, 118, 119, 120, 121, 122, 123, 124, 125, 126, 127, 128, 129, 130, 131, 132, 133, 134, 135, 136, 137, 138, 139, 140, 141, 142, 143, 144, 145, 146, 147, 148, 149, 150, 151, 152, 153, 154, 155, 156, 157, 158, 159, 160, 161, 162, 163, 164, 165, 166, 167, 168, 169, 170, 171, 172, 173, 174, 175, 176, 177, 178, 179, 180, 181, 182, 183, 184, 185, 186, 187, 188, 189, 190, 191, 192, 193, 194, 195, 196, 197, 198, 199, 200, 201, 202, 203, 204, 205, 206, 207, 208, 209, 210, 211, 212, 213, 214, 215, 216, 217, 218, 219, 220, 221, 222, 223, 224, 225, 226, 227, 228, 229, 230, 231, 232, 233, 234, 235, 236, 237, 238, 239, 240, 241, 242, 243, 244, 245, 246, 247, 248, 249, 250, 251, 252, 253, 254, 255, 256, 257, 258, 259, 260, 261, 262, 263, 264, 265, 266, 267, 268, 269, 270, 271, 272, 273, 274, 275, 276, 277, 278, 279, 280, 281, 282, 283, 284, 285, 286, 287, 288, 289, 290, 291, 292, 293, 294, 295, 296, 297, 298, 299, 300, 301, 302, 303, 304, 305, 306, 307, 308, 309, 310, 311, 312, 313, 314, 315, 316, 317, 318, 319, 320, 321, 322, 323, 324, 325, 326, 327, 328, 329, 330, 331, 332, 333, 334, 335, 336, 337, 338, 339, 340, 341, 342, 343, 344, 345, 346, 347, 348, 349, 350, 351, 352, 353, 354, 355, 356, 357, 358, 359, 360, 361, 362, 363, 364, 365, 366, 367, 368, 369, 370, 371, 372, 373, 374, 375, 376, 377, 378, 379, 380, 381, 382, 383, 384, 385, 386, 387, 388, 389, 390, 391, 392, 393, 394, 395, 396, 397, 398, 399, 400, 401, 402, 403, 404, 405, 406, 407, 408, 409, 410, 411, 412, 413, 414, 415, 416, 417, 418, 419, 420, 421, 422, 423, 424, 425, 426, 427, 428, 429, 430, 431, 432, 433, 434, 435, 436, 437, 438, 439, 440, 441, 442, 443, 444, 445, 446, 447, 448, 449, 450, 451, 452, 453, 454, 455, 456, 457, 458, 459, 460, 461, 462, 463, 464, 465, 466, 467, 468, 469, 470, 471, 472, 473, 474, 475, 476, 477, 478, 479, 480, 481, 482, 483, 484, 485, 486, 487, 488, 489, 490, 491, 492, 493, 494, 495, 496, 497, 498, 499, 500, 501, 502, 503, 504, 505, 506, 507, 508, 509, 510, 511, 512, 513, 514, 515, 516, 517, 518, 519, 520, 521, 522, 523, 524, 525, 526, 527, 528, 529, 530, 531, 532, 533, 534, 535, 536, 537, 538, 539, 540, 541, 542, 543, 544, 545, 546, 547, 548, 549, 550, 551, 552, 553, 554, 555, 556, 557, 558, 559, 560, 561, 562, 563, 564, 565, 566, 567, 568, 569, 570, 571, 572, 573, 574, 575, 576, 577, 578, 579, 580, 581, 582, 583, 584, 585, 586, 587, 588, 589, 590, 591, 592, 593, 594, 595, 596, 597, 598, 599, 600, 601, 602, 603, 604, 605, 606, 607, 608, 609, 610, 611, 612, 613, 614, 615, 616, 617, 618, 619, 620, 621, 622, 623, 624, 625, 626, 627, 628, 629, 630, 631, 632, 633, 634, 635, 636, 637, 638, 639, 640, 641, 642, 643, 644, 645, 646, 647, 648, 649, 650, 651, 652, 653, 654, 655, 656, 657, 658, 659, 660, 661, 662, 663, 664, 665, 666, 667, 668, 669, 670, 671, 672, 673, 674, 675, 676, 677, 678, 679, 680, 681, 682, 683, 684, 685, 686, 687, 688, 689, 690, 691, 692, 693, 694, 695, 696, 697, 698, 699, 700, 701, 702, 703, 704, 705, 706, 707, 708, 709, 710, 711, 712, 713, 714, 715, 716, 717, 718, 719, 720, 721, 722, 723, 724, 725, 726, 727, 728, 729, 730, 731, 732, 733, 734, 735, 736, 737, 738, 739, 740, 741, 742, 743, 744, 745, 746, 747, 748, 749, 750, 751, 752, 753, 754, 755, 756, 757, 758, 759, 760, 761, 762, 763, 764, 765, 766, 767, 768, 769, 770, 771, 772, 773, 774, 775, 776, 777, 778, 779, 780, 781, 782, 783, 784, 785, 786, 787, 788, 789, 790, 791, 792, 793, 794, 795, 796, 797, 798, 799, 800, 801, 802, 803],
      "AcquisitionTime": ["120836.280000", "120837.280000", "120838.280000", "120839.280000", "120840.280000", "120841.280000", "120842.280000", "120843.280000", "120844.280000", "120845.280000", "120846.280000", "120847.280000", "120848.280000", "120849.280000", "120850.280000", "120851.280000", "120852.280000", "120853.280000", "120854.280000", "120855.280000", "120856.280000", "120857.280000", "120858.280000", "120859.280000", "120900.280000", "120901.280000", "120902.280000", "120903.280000", "120904.280000", "120905.280000", "120906.280000", "120907.280000", "120908.280000", "120909.280000", "120910.280000", "120911.280000", "120912.280000", "120913.280000", "120914.280000", "120915.280000", "120916.280000", "120917.280000", "120918.280000", "120919.280000", "120920.280000", "120921.280000", "120922.280000", "120923.280000", "120924.280000", "120925.280000", "120926.280000", "120927.280000", "120928.280000", "120929.280000", "120930.280000", "120931.280000", "120932.280000", "120933.280000", "120934.280000", "120935.280000", "120936.280000", "120937.280000", "120938.280000", "120939.280000", "120940.280000", "120941.280000", "120942.280000", "120943.280000", "120944.280000", "120945.280000", "120946.280000", "120947.280000", "120948.280000", "120949.280000", "120950.280000", "120951.280000", "120952.280000", "120953.280000", "120954.280000", "120955.280000", "120956.280000", "120957.280000", "120958.280000", "120959.280000", "121000.280000", "121001.280000", "121002.280000", "121003.280000", "121004.280000", "121005.280000", "121006.280000", "121007.280000", "121008.280000", "121009.280000", "121010.280000", "121011.280000", "121012.280000", "121013.280000", "121014.280000", "121015.280000", "121016.280000", "121017.280000", "121018.280000", "121019.280000", "121020.280000", "121021.280000", "121022.280000", "121023.280000", "121024.280000", "121025.280000", "121026.280000", "121027.280000", "121028.280000", "121029.280000", "121030.280000", "121031.280000", "121032.280000", "121033.280000", "121034.280000", "121035.280000", "121036.280000", "121037.280000", "121038.280000", "121039.280000", "121040.280000", "121041.280000", "121042.280000", "121043.280000", "121044.280000", "121045.280000", "121046.280000", "121047.280000", "121048.280000", "121049.280000", "121050.280000", "121051.280000", "121052.280000", "121053.280000", "121054.280000", "121055.280000", "121056.280000", "121057.280000", "121058.280000", "121059.280000", "121100.280000", "121101.280000", "121102.280000", "121103.280000", "121104.280000", "121105.280000", "121106.280000", "121107.280000", "121108.280000", "121109.280000", "121110.280000", "121111.280000", "121112.280000", "121113.280000", "121114.280000", "121115.280000", "121116.280000", "121117.280000", "121118.280000", "121119.280000", "121120.280000", "121121.280000", "121122.280000", "121123.280000", "121124.280000", "121125.280000", "121126.280000", "121127.280000", "121128.280000", "121129.280000", "121130.280000", "121131.280000", "121132.280000", "121133.280000", "121134.280000", "121135.280000", "121136.280000", "121137.280000", "121138.280000", "121139.280000", "121140.280000", "121141.280000", "121142.280000", "121143.280000", "121144.280000", "121145.280000", "121146.280000", "121147.280000", "121148.280000", "121149.280000", "121150.280000", "121151.280000", "121152.280000", "121153.280000", "121154.280000", "121155.280000", "121156.280000", "121157.280000", "121158.280000", "121159.280000", "121200.280000", "121201.280000", "121202.280000", "121203.280000", "121204.280000", "121205.280000", "121206.280000", "121207.280000", "121208.280000", "121209.280000", "121210.280000", "121211.280000", "121212.280000", "121213.280000", "121214.280000", "121215.280000", "121216.280000", "121217.280000", "121218.280000", "121219.280000", "121220.280000", "121221.280000", "121222.280000", "121223.280000", "121224.280000", "121225.280000", "121226.280000", "121227.280000", "121228.280000", "121229.280000", "121230.280000", "121231.280000", "121232.280000", "121233.280000", "121234.280000", "121235.280000", "121236.280000", "121237.280000", "121238.280000", "121239.280000", "121240.280000", "121241.280000", "121242.280000", "121243.280000", "121244.280000", "121245.280000", "121246.280000", "121247.280000", "121248.280000", "121249.280000", "121250.280000", "121251.280000", "121252.280000", "121253.280000", "121254.280000", "121255.280000", "121256.280000", "121257.280000", "121258.280000", "121259.280000", "121300.280000", "121301.280000", "121302.280000", "121303.280000", "121304.280000", "121305.280000", "121306.280000", "121307.280000", "121308.280000", "121309.280000", "121310.280000", "121311.280000", "121312.280000", "121313.280000", "121314.280000", "121315.280000", "121316.280000", "121317.280000", "121318.280000", "121319.280000", "121320.280000", "121321.280000", "121322.280000", "121323.280000", "121324.280000", "121325.280000", "121326.280000", "121327.280000", "121328.280000", "121329.280000", "121330.280000", "121331.280000", "121332.280000", "121333.280000", "121334.280000", "121335.280000", "121336.280000", "121337.280000", "121338.280000", "121339.280000", "121340.280000", "121341.280000", "121342.280000", "121343.280000", "121344.280000", "121345.280000", "121346.280000", "121347.280000", "121348.280000", "121349.280000", "121350.280000", "121351.280000", "121352.280000", "121353.280000", "121354.280000", "121355.280000", "121356.280000", "121357.280000", "121358.280000", "121359.280000", "121400.280000", "121401.280000", "121402.280000", "121403.280000", "121404.280000", "121405.280000", "121406.280000", "121407.280000", "121408.280000", "121409.280000", "121410.280000", "121411.280000", "121412.280000", "121413.280000", "121414.280000", "121415.280000", "121416.280000", "121417.280000", "121418.280000", "121419.280000", "121420.280000", "121421.280000", "121422.280000", "121423.280000", "121424.280000", "121425.280000", "121426.280000", "121427.280000", "121428.280000", "121429.280000", "121430.280000", "121431.280000", "121432.280000", "121433.280000", "121434.280000", "121435.280000", "121436.280000", "121437.280000", "121438.280000", "121439.280000", "121440.280000", "121441.280000", "121442.280000", "121443.280000", "121444.280000", "121445.280000", "121446.280000", "121447.280000", "121448.280000", "121449.280000", "121450.280000", "121451.280000", "121452.280000", "121453.280000", "121454.280000", "121455.280000", "121456.280000", "121457.280000", "121458.280000", "121459.280000", "121500.280000", "121501.280000", "121502.280000", "121503.280000", "121504.280000", "121505.280000", "121506.280000", "121507.280000", "121508.280000", "121509.280000", "121510.280000", "121511.280000", "121512.280000", "121513.280000", "121514.280000", "121515.280000", "121516.280000", "121517.280000", "121518.280000", "121519.280000", "121520.280000", "121521.280000", "121522.280000", "121523.280000", "121524.280000", "121525.280000", "121526.280000", "121527.280000", "121528.280000", "121529.280000", "121530.280000", "121531.280000", "121532.280000", "121533.280000", "121534.280000", "121535.280000", "121536.280000", "121537.280000", "121538.280000", "121539.280000", "121540.280000", "121541.280000", "121542.280000", "121543.280000", "121544.280000", "121545.280000", "121546.280000", "121547.280000", "121548.280000", "121549.280000", "121550.280000", "121551.280000", "121552.280000", "121553.280000", "121554.280000", "121555.280000", "121556.280000", "121557.280000", "121558.280000", "121559.280000", "121600.280000", "121601.280000", "121602.280000", "121603.280000", "121604.280000", "121605.280000", "121606.280000", "121607.280000", "121608.280000", "121609.280000", "121610.280000", "121611.280000", "121612.280000", "121613.280000", "121614.280000", "121615.280000", "121616.280000", "121617.280000", "121618.280000", "121619.280000", "121620.280000", "121621.280000", "121622.280000", "121623.280000", "121624.280000", "121625.280000", "121626.280000", "121627.280000", "121628.280000", "121629.280000", "121630.280000", "121631.280000", "121632.280000", "121633.280000", "121634.280000", "121635.280000", "121636.280000", "121637.280000", "121638.280000", "121639.280000", "121640.280000", "121641.280000", "121642.280000", "121643.280000", "121644.280000", "121645.280000", "121646.280000", "121647.280000", "121648.280000", "121649.280000", "121650.280000", "121651.280000", "121652.280000", "121653.280000", "121654.280000", "121655.280000", "121656.280000", "121657.280000", "121658.280000", "121659.280000", "121700.280000", "121701.280000", "121702.280000", "121703.280000", "121704.280000", "121705.280000", "121706.280000", "121707.280000", "121708.280000", "121709.280000", "121710.280000", "121711.280000", "121712.280000", "121713.280000", "121714.280000", "121715.280000", "121716.280000", "121717.280000", "121718.280000", "121719.280000", "121720.280000", "121721.280000", "121722.280000", "121723.280000", "121724.280000", "121725.280000", "121726.280000", "121727.280000", "121728.280000", "121729.280000", "121730.280000", "121731.280000", "121732.280000", "121733.280000", "121734.280000", "121735.280000", "121736.280000", "121737.280000", "121738.280000", "121739.280000", "121740.280000", "121741.280000", "121742.280000", "121743.280000", "121744.280000", "121745.280000", "121746.280000", "121747.280000", "121748.280000", "121749.280000", "121750.280000", "121751.280000", "121752.280000", "121753.280000", "121754.280000", "121755.280000", "121756.280000", "121757.280000", "121758.280000", "121759.280000", "121800.280000", "121801.280000", "121802.280000", "121803.280000", "121804.280000", "121805.280000", "121806.280000", "121807.280000", "121808.280000", "121809.280000", "121810.280000", "121811.280000", "121812.280000", "121813.280000", "121814.280000", "121815.280000", "121816.280000", "121817.280000", "121818.280000", "121819.280000", "121820.280000", "121821.280000", "121822.280000", "121823.280000", "121824.280000", "121825.280000", "121826.280000", "121827.280000", "121828.280000", "121829.280000", "121830.280000", "121831.280000", "121832.280000", "121833.280000", "121834.280000", "121835.280000", "121836.280000", "121837.280000", "121838.280000", "121839.280000", "121840.280000", "121841.280000", "121842.280000", "121843.280000", "121844.280000", "121845.280000", "121846.280000", "121847.280000", "121848.280000", "121849.280000", "121850.280000", "121851.280000", "121852.280000", "121853.280000", "121854.280000", "121855.280000", "121856.280000", "121857.280000", "121858.280000", "121859.280000", "121900.280000", "121901.280000", "121902.280000", "121903.280000", "121904.280000", "121905.280000", "121906.280000", "121907.280000", "121908.280000", "121909.280000", "121910.280000", "121911.280000", "121912.280000", "121913.280000", "121914.280000", "121915.280000", "121916.280000", "121917.280000", "121918.280000", "121919.280000", "121920.280000", "121921.280000", "121922.280000", "121923.280000", "121924.280000", "121925.280000", "121926.280000", "121927.280000", "121928.280000", "121929.280000", "121930.280000", "121931.280000", "121932.280000", "121933.280000", "121934.280000", "121935.280000", "121936.280000", "121937.280000", "121938.280000", "121939.280000", "121940.280000", "121941.280000", "121942.280000", "121943.280000", "121944.280000", "121945.280000", "121946.280000", "121947.280000", "121948.280000", "121949.280000", "121950.280000", "121951.280000", "121952.280000", "121953.280000", "121954.280000", "121955.280000", "121956.280000", "121957.280000", "121958.280000", "121959.280000", "122000.280000", "122001.280000", "122002.280000", "122003.280000", "122004.280000", "122005.280000", "122006.280000", "122007.280000", "122008.280000", "122009.280000", "122010.280000", "122011.280000", "122012.280000", "122013.280000", "122014.280000", "122015.280000", "122016.280000", "122017.280000", "122018.280000", "122019.280000", "122020.280000", "122021.280000", "122022.280000", "122023.280000", "122024.280000", "122025.280000", "122026.280000", "122027.280000", "122028.280000", "122029.280000", "122030.280000", "122031.280000", "122032.280000", "122033.280000", "122034.280000", "122035.280000", "122036.280000", "122037.280000", "122038.280000", "122039.280000", "122040.280000", "122041.280000", "122042.280000", "122043.280000", "122044.280000", "122045.280000", "122046.280000", "122047.280000", "122048.280000", "122049.280000", "122050.280000", "122051.280000", "122052.280000", "122053.280000", "122054.280000", "122055.280000", "122056.280000", "122057.280000", "122058.280000", "122059.280000", "122100.280000", "122101.280000", "122102.280000", "122103.280000", "122104.280000", "122105.280000", "122106.280000", "122107.280000", "122108.280000", "122109.280000", "122110.280000", "122111.280000", "122112.280000", "122113.280000", "122114.280000", "122115.280000", "122116.280000", "122117.280000", "122118.280000", "122119.280000", "122120.280000", "122121.280000", "122122.280000", "122123.280000", "122124.280000", "122125.280000", "122126.280000", "122127.280000", "122128.280000", "122129.280000", "122130.280000", "122131.280000", "122132.280000", "122133.280000", "122134.280000", "122135.280000", "122136.280000", "122137.280000", "122138.280000", "122139.280000", "122140.280000", "122141.280000", "122142.280000", "122143.280000", "122144.280000", "122145.280000", "122146.280000", "122147.280000", "122148.280000", "122149.280000", "122150.280000", "122151.280000", "122152.280000", "122153.280000", "122154.280000", "122155.280000", "122156.280000", "122157.280000", "122158.280000"],
