{
  "AcquisitionMatrixPE": 96,
  "AcquisitionNumber": 1,
  "AcquisitionTime": "11:39:6.812500",
  "BandwidthPerPixelPhaseEncode": 18.939,
  "BaseResolution": 96,
  "BodyPartExamined": "BRAIN",
  "ConsistencyInfo": "N4_VE11C_LATEST_20160120",
  "ConversionSoftware": "dcm2niix",
  "ConversionSoftwareVersion": "v1.0.20190902",
  "DerivedVendorReportedEchoSpacing": 0.000550011,
  "DeviceSerialNumber": "66112",
  "DwellTime": 2.2e-06,
  "EchoTime": 0.033,
  "EchoTrainLength": 96,
  "EffectiveEchoSpacing": 0.000550011,
  "FlipAngle": 59,
  "ImageOrientationPatientDICOM": [0.996395, -0.0169187, 0.0831351, 0.0203495, 0.998968, -0.0405955],
  "ImageType": [
    "ORIGINAL",
    "PRIMARY",
    "FMRI",
    "NONE",
    "ND",
    "NORM",
    "MOSAIC"
],
  "ImagingFrequency": 123.252,
  "InPlanePhaseEncodingDirectionDICOM": "COL",
  "InstitutionAddress": "Maynard_3_Hanover_NH_US_03755",
  "InstitutionName": "Dartmouth_College_-_PBS",
  "InstitutionalDepartmentName": "Department",
  "MRAcquisitionType": "2D",
  "MagneticFieldStrength": 3,
  "Manufacturer": "Siemens",
  "ManufacturersModelName": "Prisma",
  "Modality": "MR",
  "MultibandAccelerationFactor": 4,
  "PartialFourier": 1,
  "PatientPosition": "HFS",
  "PercentPhaseFOV": 100,
  "PhaseEncodingDirection": "j-",
  "PhaseEncodingSteps": 96,
  "PhaseResolution": 1,
  "PixelBandwidth": 2365,
  "ProcedureStepDescription": "Gobbini_Matteo_1037_budapest",
  "ProtocolName": "func_run-02_task-movie",
  "PulseSequenceDetails": "%SiemensSeq%_ep2d_bold",
  "ReceiveCoilActiveElements": "HEA;HEP",
  "ReceiveCoilName": "Head_32",
  "ReconMatrixPE": 96,
  "RefLinesPE": 12,
  "RepetitionTime": 1,
  "SAR": 0.0573531,
  "ScanOptions": "FS",
  "ScanningSequence": "EP",
  "SequenceName": "_epfid2d1_96",
  "SequenceVariant": "SK",
  "SeriesDescription": "func_run-02_task-movie",
  "SeriesNumber": 15,
  "ShimSetting": [4172, -7687, -7312, 723, -4, -61, -11, 21],
  "SliceThickness": 2.5,
  "SliceTiming": [0.735, 0, 0.49, 0.0825, 0.5725, 0.1625, 0.6525, 0.3275, 0.8175, 0.4075, 0.8975, 0.245, 0.735, 0, 0.49, 0.0825, 0.5725, 0.1625, 0.6525, 0.3275, 0.8175, 0.4075, 0.8975, 0.245, 0.735, 0, 0.49, 0.0825, 0.5725, 0.1625, 0.6525, 0.3275, 0.8175, 0.4075, 0.8975, 0.245, 0.735, 0, 0.49, 0.0825, 0.5725, 0.1625, 0.6525, 0.3275, 0.8175, 0.4075, 0.8975, 0.245],
  "SoftwareVersions": "syngo_MR_E11",
  "SpacingBetweenSlices": 2.5,
  "StationName": "AWP66112",
  "TaskName": "movie",
  "TotalReadoutTime": 0.0522511,
  "TxRefAmp": 236.873,
  "dcmmeta_affine": [
    [-2.4909865856170654, 0.05087384954094887, 0.20590628683567047, 114.02253723144531],
    [0.042296793311834335, 2.4974210262298584, -0.10535214841365814, -105.1718978881836],
    [0.20783774554729462, 0.1014886423945427, 2.4892778396606445, -80.77529907226562],
    [0.0, 0.0, 0.0, 1.0]
],
  "dcmmeta_reorient_transform": [
    [0.0, -1.0, 0.0, 95.0],
    [1.0, 0.0, 0.0, 0.0],
    [0.0, 0.0, 1.0, 0.0],
    [0.0, 0.0, 0.0, 1.0]
],
  "dcmmeta_shape": [96, 96, 48, 498],
  "dcmmeta_slice_dim": 2,
  "dcmmeta_version": 0.6,
  "global": {
    "const": {
      "AccessionNumber": "A001249",
      "AcquisitionMatrix": [96, 0, 0, 96],
      "AngioFlag": "N",
      "BitsAllocated": 16,
      "BitsStored": 12,
      "BodyPartExamined": "BRAIN",
      "Columns": 672,
      "EchoNumbers": 1,
      "EchoTime": 33.0,
      "EchoTrainLength": 96,
      "FlipAngle": 59.0,
      "HighBit": 11,
      "ImageOrientationPatient": [0.99639465715042, -0.016918717777, 0.08313509602376, 0.02034953908578, 0.99896842047186, -0.0405954573684],
      "ImagePositionPatient": [-850.91137513405, -839.15888901186, -101.7624178694],
      "ImageType": [
        "ORIGINAL",
        "PRIMARY",
        "FMRI",
        "NONE",
        "ND",
        "NORM",
        "MOSAIC"
],
      "ImagedNucleus": "1H",
      "ImagingFrequency": 123.252316,
      "InPlanePhaseEncodingDirection": "COL",
      "MRAcquisitionType": "2D",
      "MagneticFieldStrength": 3.0,
      "Manufacturer": "SIEMENS",
      "ManufacturerModelName": "Prisma",
      "Modality": "MR",
      "NumberOfAverages": 1.0,
      "NumberOfPhaseEncodingSteps": 96,
      "PercentPhaseFieldOfView": 100.0,
      "PercentSampling": 100.0,
      "PerformedProcedureStepStartTime": "111113.347000",
      "PhotometricInterpretation": "MONOCHROME2",
      "PixelBandwidth": 2365.0,
      "PixelRepresentation": 0,
      "PixelSpacing": [2.5, 2.5],
      "ProtocolName": "func_run-02_task-movie",
      "RepetitionTime": 1000.0,
      "Rows": 672,
      "SAR": 0.05735310325321,
      "SamplesPerPixel": 1,
      "ScanOptions": "FS",
      "ScanningSequence": "EP",
      "SequenceName": "*epfid2d1_96",
      "SequenceVariant": "SK",
      "SeriesDescription": "func_run-02_task-movie",
      "SeriesNumber": 15,
      "SeriesTime": "113908.403000",
      "SliceLocation": -66.605644092608,
      "SliceThickness": 2.5,
      "SmallestImagePixelValue": 0,
      "SoftwareVersions": "syngo MR E11",
      "SpacingBetweenSlices": 2.5000000653608,
      "SpecificCharacterSet": "ISO_IR 100",
      "StudyID": "2",
      "StudyTime": "111113.306000",
      "TransmitCoilName": "Body",
      "VariableFlipAngleFlag": "N",
      "WindowCenterWidthExplanation": "Algo1",
      "dBdt": 0.0},
    "slices": {}
  },
  "time": {
    "samples": {
      "AcquisitionNumber": [1, 2, 3, 4, 5, 6, 7, 8, 9, 10, 11, 12, 13, 14, 15, 16, 17, 18, 19, 20, 21, 22, 23, 24, 25, 26, 27, 28, 29, 30, 31, 32, 33, 34, 35, 36, 37, 38, 39, 40, 41, 42, 43, 44, 45, 46, 47, 48, 49, 50, 51, 52, 53, 54, 55, 56, 57, 58, 59, 60, 61, 62, 63, 64, 65, 66, 67, 68, 69, 70, 71, 72, 73, 74, 75, 76, 77, 78, 79, 80, 81, 82, 83, 84, 85, 86, 87, 88, 89, 90, 91, 92, 93, 94, 95, 96, 97, 98, 99, 100, 101, 102, 103, 104, 105, 106, 107, 108, 109, 110, 111, 112, 113, 114, 115, 116, 117, 118, 119, 120, 121, 122, 123, 124, 125, 126, 127, 128, 129, 130, 131, 132, 133, 134, 135, 136, 137, 138, 139, 140, 141, 142, 143, 144, 145, 146, 147, 148, 149, 150, 151, 152, 153, 154, 155, 156, 157, 158, 159, 160, 161, 162, 163, 164, 165, 166, 167, 168, 169, 170, 171, 172, 173, 174, 175, 176, 177, 178, 179, 180, 181, 182, 183, 184, 185, 186, 187, 188, 189, 190, 191, 192, 193, 194, 195, 196, 197, 198, 199, 200, 201, 202, 203, 204, 205, 206, 207, 208, 209, 210, 211, 212, 213, 214, 215, 216, 217, 218, 219, 220, 221, 222, 223, 224, 225, 226, 227, 228, 229, 230, 231, 232, 233, 234, 235, 236, 237, 238, 239, 240, 241, 242, 243, 244, 245, 246, 247, 248, 249, 250, 251, 252, 253, 254, 255, 256, 257, 258, 259, 260, 261, 262, 263, 264, 265, 266, 267, 268, 269, 270, 271, 272, 273, 274, 275, 276, 277, 278, 279, 280, 281, 282, 283, 284, 285, 286, 287, 288, 289, 290, 291, 292, 293, 294, 295, 296, 297, 298, 299, 300, 301, 302, 303, 304, 305, 306, 307, 308, 309, 310, 311, 312, 313, 314, 315, 316, 317, 318, 319, 320, 321, 322, 323, 324, 325, 326, 327, 328, 329, 330, 331, 332, 333, 334, 335, 336, 337, 338, 339, 340, 341, 342, 343, 344, 345, 346, 347, 348, 349, 350, 351, 352, 353, 354, 355, 356, 357, 358, 359, 360, 361, 362, 363, 364, 365, 366, 367, 368, 369, 370, 371, 372, 373, 374, 375, 376, 377, 378, 379, 380, 381, 382, 383, 384, 385, 386, 387, 388, 389, 390, 391, 392, 393, 394, 395, 396, 397, 398, 399, 400, 401, 402, 403, 404, 405, 406, 407, 408, 409, 410, 411, 412, 413, 414, 415, 416, 417, 418, 419, 420, 421, 422, 423, 424, 425, 426, 427, 428, 429, 430, 431, 432, 433, 434, 435, 436, 437, 438, 439, 440, 441, 442, 443, 444, 445, 446, 447, 448, 449, 450, 451, 452, 453, 454, 455, 456, 457, 458, 459, 460, 461, 462, 463, 464, 465, 466, 467, 468, 469, 470, 471, 472, 473, 474, 475, 476, 477, 478, 479, 480, 481, 482, 483, 484, 485, 486, 487, 488, 489, 490, 491, 492, 493, 494, 495, 496, 497, 498],
      "AcquisitionTime": ["113906.812500", "113907.812500", "113908.812500", "113909.812500", "113910.812500", "113911.812500", "113912.812500", "113913.812500", "113914.812500", "113915.812500", "113916.812500", "113917.812500", "113918.812500", "113919.812500", "113920.812500", "113921.812500", "113922.812500", "113923.812500", "113924.812500", "113925.812500", "113926.812500", "113927.812500", "113928.812500", "113929.812500", "113930.812500", "113931.812500", "113932.812500", "113933.812500", "113934.812500", "113935.812500", "113936.812500", "113937.812500", "113938.812500", "113939.812500", "113940.812500", "113941.812500", "113942.812500", "113943.812500", "113944.812500", "113945.812500", "113946.812500", "113947.812500", "113948.812500", "113949.812500", "113950.812500", "113951.812500", "113952.812500", "113953.812500", "113954.812500", "113955.812500", "113956.812500", "113957.812500", "113958.812500", "113959.812500", "114000.812500", "114001.812500", "114002.812500", "114003.812500", "114004.812500", "114005.812500", "114006.812500", "114007.812500", "114008.812500", "114009.812500", "114010.812500", "114011.812500", "114012.812500", "114013.812500", "114014.812500", "114015.812500", "114016.812500", "114017.812500", "114018.812500", "114019.812500", "114020.812500", "114021.812500", "114022.812500", "114023.812500", "114024.812500", "114025.812500", "114026.812500", "114027.812500", "114028.812500", "114029.812500", "114030.812500", "114031.812500", "114032.812500", "114033.812500", "114034.812500", "114035.812500", "114036.812500", "114037.812500", "114038.812500", "114039.812500", "114040.812500", "114041.812500", "114042.812500", "114043.812500", "114044.812500", "114045.812500", "114046.812500", "114047.812500", "114048.812500", "114049.812500", "114050.812500", "114051.812500", "114052.812500", "114053.812500", "114054.812500", "114055.812500", "114056.812500", "114057.812500", "114058.812500", "114059.812500", "114100.812500", "114101.812500", "114102.812500", "114103.812500", "114104.812500", "114105.812500", "114106.812500", "114107.812500", "114108.812500", "114109.812500", "114110.812500", "114111.812500", "114112.812500", "114113.812500", "114114.812500", "114115.812500", "114116.812500", "114117.812500", "114118.812500", "114119.812500", "114120.812500", "114121.812500", "114122.812500", "114123.812500", "114124.812500", "114125.812500", "114126.812500", "114127.812500", "114128.812500", "114129.812500", "114130.812500", "114131.812500", "114132.812500", "114133.812500", "114134.812500", "114135.812500", "114136.812500", "114137.812500", "114138.812500", "114139.812500", "114140.812500", "114141.812500", "114142.812500", "114143.812500", "114144.812500", "114145.812500", "114146.812500", "114147.812500", "114148.812500", "114149.812500", "114150.812500", "114151.812500", "114152.812500", "114153.812500", "114154.812500", "114155.812500", "114156.812500", "114157.812500", "114158.812500", "114159.812500", "114200.812500", "114201.812500", "114202.812500", "114203.812500", "114204.812500", "114205.812500", "114206.812500", "114207.812500", "114208.812500", "114209.812500", "114210.812500", "114211.812500", "114212.812500", "114213.812500", "114214.812500", "114215.812500", "114216.812500", "114217.812500", "114218.812500", "114219.812500", "114220.812500", "114221.812500", "114222.812500", "114223.812500", "114224.812500", "114225.812500", "114226.812500", "114227.812500", "114228.812500", "114229.812500", "114230.812500", "114231.812500", "114232.812500", "114233.812500", "114234.812500", "114235.812500", "114236.812500", "114237.812500", "114238.812500", "114239.812500", "114240.812500", "114241.812500", "114242.812500", "114243.812500", "114244.812500", "114245.812500", "114246.812500", "114247.812500", "114248.812500", "114249.812500", "114250.812500", "114251.812500", "114252.812500", "114253.812500", "114254.812500", "114255.812500", "114256.812500", "114257.812500", "114258.812500", "114259.812500", "114300.812500", "114301.812500", "114302.812500", "114303.812500", "114304.812500", "114305.812500", "114306.812500", "114307.812500", "114308.812500", "114309.812500", "114310.812500", "114311.812500", "114312.812500", "114313.812500", "114314.812500", "114315.812500", "114316.812500", "114317.812500", "114318.812500", "114319.812500", "114320.812500", "114321.812500", "114322.812500", "114323.812500", "114324.812500", "114325.812500", "114326.812500", "114327.812500", "114328.812500", "114329.812500", "114330.812500", "114331.812500", "114332.812500", "114333.812500", "114334.812500", "114335.812500", "114336.812500", "114337.812500", "114338.812500", "114339.812500", "114340.812500", "114341.812500", "114342.812500", "114343.812500", "114344.812500", "114345.812500", "114346.812500", "114347.812500", "114348.812500", "114349.812500", "114350.812500", "114351.812500", "114352.812500", "114353.812500", "114354.812500", "114355.812500", "114356.812500", "114357.812500", "114358.812500", "114359.812500", "114400.812500", "114401.812500", "114402.812500", "114403.812500", "114404.812500", "114405.812500", "114406.812500", "114407.812500", "114408.812500", "114409.812500", "114410.812500", "114411.812500", "114412.812500", "114413.812500", "114414.812500", "114415.812500", "114416.812500", "114417.812500", "114418.812500", "114419.812500", "114420.812500", "114421.812500", "114422.812500", "114423.812500", "114424.812500", "114425.812500", "114426.812500", "114427.812500", "114428.812500", "114429.812500", "114430.812500", "114431.812500", "114432.812500", "114433.812500", "114434.812500", "114435.812500", "114436.812500", "114437.812500", "114438.812500", "114439.812500", "114440.812500", "114441.812500", "114442.812500", "114443.812500", "114444.812500", "114445.812500", "114446.812500", "114447.812500", "114448.812500", "114449.812500", "114450.812500", "114451.812500", "114452.812500", "114453.812500", "114454.812500", "114455.812500", "114456.812500", "114457.812500", "114458.812500", "114459.812500", "114500.812500", "114501.812500", "114502.812500", "114503.812500", "114504.812500", "114505.812500", "114506.812500", "114507.812500", "114508.812500", "114509.812500", "114510.812500", "114511.812500", "114512.812500", "114513.812500", "114514.812500", "114515.812500", "114516.812500", "114517.812500", "114518.812500", "114519.812500", "114520.812500", "114521.812500", "114522.812500", "114523.812500", "114524.812500", "114525.812500", "114526.812500", "114527.812500", "114528.812500", "114529.812500", "114530.812500", "114531.812500", "114532.812500", "114533.812500", "114534.812500", "114535.812500", "114536.812500", "114537.812500", "114538.812500", "114539.812500", "114540.812500", "114541.812500", "114542.812500", "114543.812500", "114544.812500", "114545.812500", "114546.812500", "114547.812500", "114548.812500", "114549.812500", "114550.812500", "114551.812500", "114552.812500", "114553.812500", "114554.812500", "114555.812500", "114556.812500", "114557.812500", "114558.812500", "114559.812500", "114600.812500", "114601.812500", "114602.812500", "114603.812500", "114604.812500", "114605.812500", "114606.812500", "114607.812500", "114608.812500", "114609.812500", "114610.812500", "114611.812500", "114612.812500", "114613.812500", "114614.812500", "114615.812500", "114616.812500", "114617.812500", "114618.812500", "114619.812500", "114620.812500", "114621.812500", "114622.812500", "114623.812500", "114624.812500", "114625.812500", "114626.812500", "114627.812500", "114628.812500", "114629.812500", "114630.812500", "114631.812500", "114632.812500", "114633.812500", "114634.812500", "114635.812500", "114636.812500", "114637.812500", "114638.812500", "114639.812500", "114640.812500", "114641.812500", "114642.812500", "114643.812500", "114644.812500", "114645.812500", "114646.812500", "114647.812500", "114648.812500", "114649.812500", "114650.812500", "114651.812500", "114652.812500", "114653.812500", "114654.812500", "114655.812500", "114656.812500", "114657.812500", "114658.812500", "114659.812500", "114700.812500", "114701.812500", "114702.812500", "114703.812500", "114704.812500", "114705.812500", "114706.812500", "114707.812500", "114708.812500", "114709.812500", "114710.812500", "114711.812500", "114712.812500", "114713.812500", "114714.812500", "114715.812500", "114716.812500", "114717.812500", "114718.812500", "114719.812500", "114720.812500", "114721.812500", "114722.812500", "114723.812500"],
      "ContentTime": ["113908.407000", "113909.175000", "113910.211000", "113911.191000", "113912.196000", "113913.200000", "113914.181000", "113915.206000", "113916.189000", "113917.204000", "113918.200000", "113919.194000", "113920.226000", "113921.180000", "113922.223000", "113923.205000", "113924.201000", "113925.191000", "113926.172000", "113927.178000", "113928.201000", "113929.241000", "113930.188000", "113931.227000", "113932.197000", "113933.207000", "113934.223000", "113935.195000", "113936.182000", "113937.191000", "113938.193000", "113939.195000", "113940.197000", "113941.181000", "113942.218000", "113943.248000", "113944.193000", "113945.190000", "113946.172000", "113947.185000", "113948.192000", "113949.174000", "113950.207000", "113951.197000", "113952.188000", "113953.180000", "113954.202000", "113955.193000", "113956.248000", "113957.184000", "113958.191000", "113959.190000", "114000.242000", "114001.208000", "114002.179000", "114003.195000", "114004.201000", "114005.190000", "114006.180000", "114007.176000", "114008.202000", "114009.224000", "114010.201000", "114011.192000", "114012.224000", "114013.209000", "114014.176000", "114015.176000", "114016.227000", "114017.195000", "114018.199000", "114019.215000", "114020.194000", "114021.188000", "114022.252000", "114023.210000", "114024.199000", "114025.162000", "114026.206000", "114027.245000", "114028.205000", "114029.180000", "114030.177000", "114031.204000", "114032.190000", "114033.180000", "114034.198000", "114035.200000", "114036.189000", "114037.207000", "114038.267000", "114039.198000", "114040.222000", "114041.226000", "114042.197000", "114043.196000", "114044.198000", "114045.190000", "114046.176000", "114047.202000", "114048.225000", "114049.252000", "114050.175000", "114051.178000", "114052.211000", "114053.193000", "114054.190000", "114055.189000", "114056.184000", "114057.196000", "114058.201000", "114059.186000", "114100.230000", "114101.182000", "114102.259000", "114103.207000", "114104.212000", "114105.208000", "114106.218000", "114107.236000", "114108.196000", "114109.200000", "114110.186000", "114111.213000", "114112.187000", "114113.207000", "114114.260000", "114115.202000", "114116.238000", "114117.193000", "114118.172000", "114119.201000", "114120.192000", "114121.242000", "114122.232000", "114123.204000", "114124.263000", "114125.220000", "114126.206000", "114127.251000", "114128.278000", "114129.281000", "114130.249000", "114131.216000", "114132.199000", "114133.204000", "114134.184000", "114135.201000", "114136.239000", "114137.193000", "114138.213000", "114139.204000", "114140.197000", "114141.228000", "114142.191000", "114143.250000", "114144.178000", "114145.197000", "114146.182000", "114147.231000", "114148.178000", "114149.224000", "114150.207000", "114151.199000", "114152.183000", "114153.193000", "114154.260000", "114155.191000", "114156.210000", "114157.185000", "114158.198000", "114159.207000", "114200.219000", "114201.233000", "114202.209000", "114203.193000", "114204.247000", "114205.206000", "114206.195000", "114207.184000", "114208.243000", "114209.211000", "114210.202000", "114211.193000", "114212.191000", "114213.214000", "114214.192000", "114215.202000", "114216.206000", "114217.253000", "114218.210000", "114219.195000", "114220.244000", "114221.219000", "114222.185000", "114223.200000", "114224.256000", "114225.180000", "114226.222000", "114227.167000", "114228.227000", "114229.170000", "114230.194000", "114231.191000", "114232.251000", "114233.179000", "114234.145000", "114235.183000", "114236.186000", "114237.230000", "114238.201000", "114239.200000", "114240.198000", "114241.198000", "114242.214000", "114243.196000", "114244.210000", "114245.185000", "114246.185000", "114247.175000", "114248.204000", "114249.199000", "114250.199000", "114251.218000", "114252.180000", "114253.184000", "114254.231000", "114255.227000", "114256.195000", "114257.212000", "114258.195000", "114259.224000", "114300.226000", "114301.192000", "114302.212000", "114303.212000", "114304.209000", "114305.206000", "114306.392000", "114307.221000", "114308.213000", "114309.216000", "114310.179000", "114311.205000", "114312.218000", "114313.193000", "114314.216000", "114315.175000", "114316.189000", "114317.212000", "114318.195000", "114319.197000", "114320.181000", "114321.191000", "114322.187000", "114323.228000", "114324.186000", "114325.188000", "114326.206000", "114327.196000", "114328.195000", "114329.236000", "114330.151000", "114331.202000", "114332.202000", "114333.202000", "114334.214000", "114335.180000", "114336.164000", "114337.195000", "114338.220000", "114339.196000", "114340.237000", "114341.180000", "114342.217000", "114343.194000", "114344.214000", "114345.189000", "114346.207000", "114347.198000", "114348.211000", "114349.182000", "114350.196000", "114351.221000", "114352.190000", "114353.233000", "114354.194000", "114355.193000", "114356.207000", "114357.195000", "114358.203000", "114359.251000", "114400.205000", "114401.213000", "114402.226000", "114403.231000", "114404.203000", "114405.192000", "114406.217000", "114407.196000", "114408.217000", "114409.187000", "114410.184000", "114411.199000", "114412.227000", "114413.173000", "114414.201000", "114415.192000", "114416.197000", "114417.199000", "114418.176000", "114419.209000", "114420.228000", "114421.180000", "114422.227000", "114423.186000", "114424.205000", "114425.169000", "114426.251000", "114427.157000", "114428.199000", "114429.270000", "114430.176000", "114431.193000", "114432.203000", "114433.211000", "114434.203000", "114435.170000", "114436.188000", "114437.183000", "114438.208000", "114439.268000", "114440.204000", "114441.167000", "114442.202000", "114443.243000", "114444.225000", "114445.197000", "114446.208000", "114447.224000", "114448.220000", "114449.240000", "114450.227000", "114451.248000", "114452.219000", "114453.216000", "114454.223000", "114455.202000", "114456.262000", "114457.197000", "114458.184000", "114459.277000", "114500.251000", "114501.190000", "114502.224000", "114503.214000", "114504.252000", "114505.185000", "114506.200000", "114507.199000", "114508.198000", "114509.260000", "114510.227000", "114511.191000", "114512.229000", "114513.204000", "114514.169000", "114515.192000", "114516.190000", "114517.206000", "114518.207000", "114519.211000", "114520.234000", "114521.207000", "114522.215000", "114523.179000", "114524.239000", "114525.239000", "114526.218000", "114527.174000", "114528.228000", "114529.202000", "114530.208000", "114531.189000", "114532.208000", "114533.165000", "114534.229000", "114535.194000", "114536.187000", "114537.172000", "114538.177000", "114539.157000", "114540.195000", "114541.201000", "114542.255000", "114543.211000", "114544.199000", "114545.191000", "114546.217000", "114547.199000", "114548.203000", "114549.245000", "114550.182000", "114551.218000", "114552.199000", "114553.255000", "114554.239000", "114555.200000", "114556.206000", "114557.175000", "114558.203000", "114559.172000", "114600.207000", "114601.176000", "114602.208000", "114603.183000", "114604.217000", "114605.206000", "114606.218000", "114607.248000", "114608.207000", "114609.202000", "114610.233000", "114611.207000", "114612.228000", "114613.196000", "114614.210000", "114615.202000", "114616.217000", "114617.200000", "114618.185000", "114619.204000", "114620.177000", "114621.229000", "114622.230000", "114623.223000", "114624.211000", "114625.207000", "114626.184000", "114627.189000", "114628.227000", "114629.214000", "114630.200000", "114631.189000", "114632.245000", "114633.170000", "114634.242000", "114635.226000", "114636.243000", "114637.191000", "114638.248000", "114639.195000", "114640.239000", "114641.194000", "114642.224000", "114643.198000", "114644.200000", "114645.209000", "114646.236000", "114647.183000", "114648.216000", "114649.201000", "114650.230000", "114651.203000", "114652.199000", "114653.204000", "114654.222000", "114655.222000", "114656.195000", "114657.189000", "114658.236000", "114659.221000", "114700.164000", "114701.205000", "114702.212000", "114703.201000", "114704.252000", "114705.209000", "114706.186000", "114707.234000", "114708.211000", "114709.219000", "114710.204000", "114711.242000", "114712.219000", "114713.205000", "114714.238000", "114715.206000", "114716.220000", "114717.259000", "114718.193000", "114719.190000", "114720.210000", "114721.214000", "114722.213000", "114723.186000", "114724.173000", "114725.220000"],
