{
  "AcquisitionMatrixPE": 96,
  "AcquisitionNumber": 1,
  "AcquisitionTime": "20:59:14.050000",
  "BaseResolution": 96,
  "BodyPartExamined": "BRAIN",
  "ConsistencyInfo": "N4_VE11C_LATEST_20160120",
  "ConversionSoftware": "dcm2niix",
  "ConversionSoftwareVersion": "v1.0.20190902",
  "DeviceSerialNumber": "66112",
  "DwellTime": 8.8e-06,
  "EchoNumber": 2,
  "EchoTime": 0.00738,
  "EchoTime1": 0.00492,
  "EchoTime2": 0.00738,
  "FlipAngle": 60,
  "ImageOrientationPatientDICOM": [
    0.999113,
    0.0236072,
    -0.0348636,
    -0.0238943,
    0.999684,
    -0.00784287
  ],
  "ImageType": [
    "ORIGINAL",
    "PRIMARY",
    "P",
    "ND"
  ],
  "ImagingFrequency": 123.252,
  "InPlanePhaseEncodingDirectionDICOM": "COL",
  "InstitutionAddress": "Maynard_3_Hanover_NH_US_03755",
  "InstitutionName": "Dartmouth_College_-_PBS",
  "InstitutionalDepartmentName": "Department",
  "IntendedFor": [
    "func/sub-sid000142_task-movie_run-01_bold.nii.gz",
    "func/sub-sid000142_task-movie_run-02_bold.nii.gz",
    "func/sub-sid000142_task-movie_run-03_bold.nii.gz",
    "func/sub-sid000142_task-movie_run-04_bold.nii.gz",
    "func/sub-sid000142_task-movie_run-05_bold.nii.gz"
  ],
  "MRAcquisitionType": "2D",
  "MagneticFieldStrength": 3,
  "Manufacturer": "Siemens",
  "ManufacturersModelName": "Prisma",
  "Modality": "MR",
  "PartialFourier": 1,
  "PatientPosition": "HFS",
  "PercentPhaseFOV": 100,
  "PhaseEncodingDirection": "j-",
  "PhaseEncodingSteps": 96,
  "PhaseResolution": 1,
  "PixelBandwidth": 590,
  "ProcedureStepDescription": "Gobbini_Matteo_1037_budapest",
  "ProtocolName": "fmap_acq-2.5mm",
  "PulseSequenceDetails": "%SiemensSeq%_gre_field_mapping",
  "ReceiveCoilActiveElements": "HEA;HEP",
  "ReceiveCoilName": "Head_32",
  "ReconMatrixPE": 96,
  "RepetitionTime": 0.675,
  "SAR": 0.0929464,
  "ScanningSequence": "GR",
  "SequenceName": "_fm2d2r",
  "SequenceVariant": "SP",
  "SeriesDescription": "fmap_acq-2.5mm",
  "SeriesNumber": 7,
  "ShimSetting": [
    4140,
    -7805,
    -7260,
    912,
    -69,
    -294,
    334,
    82
  ],
  "SliceThickness": 2.5,
  "SliceTiming": [
    0.32812,
    0,
    0.34375,
    0.01562,
    0.35938,
    0.01562,
    0.375,
    0.03125,
    0.39062,
    0.04688,
    0.40625,
    0.0625,
    0.42188,
    0.07812,
    0.42188,
    0.09375,
    0.4375,
    0.10938,
    0.45312,
    0.125,
    0.46875,
    0.14062,
    0.48438,
    0.15625,
    0.5,
    0.15625,
    0.51562,
    0.17188,
    0.53125,
    0.1875,
    0.54688,
    0.20312,
    0.5625,
    0.21875,
    0.57812,
    0.23438,
    0.57812,
    0.25,
    0.59375,
    0.26562,
    0.60938,
    0.28125,
    0.625,
    0.28125,
    0.64062,
    0.29688,
    0.65625,
    0.3125
  ],
  "SoftwareVersions": "syngo_MR_E11",
  "SpacingBetweenSlices": 2.5,
  "StationName": "AWP66112",
  "TxRefAmp": 232.655,
  "dcmmeta_affine": [
    [
      -2.4977829456329346,
      -0.059735868126153946,
      -0.08666872978210449,
      123.72791290283203
    ],
    [
      -0.059017982333898544,
      2.499209403991699,
      -0.02167224884033203,
      -104.4267807006836
    ],
    [
      -0.08715911209583282,
      0.01960717886686325,
      2.4984054565429688,
      -47.138771057128906
    ],
    [
      0.0,
      0.0,
      0.0,
      1.0
    ]
  ],
  "dcmmeta_reorient_transform": [
    [
      0.0,
      -1.0,
      0.0,
      95.0
    ],
    [
      1.0,
      0.0,
      0.0,
      0.0
    ],
    [
      0.0,
      0.0,
      -1.0,
      47.0
    ],
    [
      0.0,
      0.0,
      0.0,
      1.0
    ]
  ],
  "dcmmeta_shape": [
    96,
    96,
    48
  ],
  "dcmmeta_slice_dim": 2,
  "dcmmeta_version": 0.6,
  "global": {
    "const": {
      "AccessionNumber": "A001288",
      "AcquisitionMatrix": [
        96,
        0,
        0,
        96
      ],
      "AcquisitionNumber": 1,
      "AngioFlag": "N",
      "BitsAllocated": 16,
      "BitsStored": 12,
      "BodyPartExamined": "BRAIN",
      "Columns": 96,
      "EchoNumbers": 2,
      "EchoTime": 7.38,
      "EchoTrainLength": 0,
      "FlipAngle": 60.0,
      "HighBit": 11,
      "ImageOrientationPatient": [
        0.99911322011594,
        0.02360719357838,
        -0.0348636458352,
        -0.0238943473386,
        0.99968372474858,
        -0.0078428717996
      ],
      "ImageType": [
        "ORIGINAL",
        "PRIMARY",
        "P",
        "ND"
      ],
      "ImagedNucleus": "1H",
      "ImagingFrequency": 123.252335,
      "InPlanePhaseEncodingDirection": "COL",
      "MRAcquisitionType": "2D",
      "MagneticFieldStrength": 3.0,
      "Manufacturer": "SIEMENS",
      "ManufacturerModelName": "Prisma",
      "Modality": "MR",
      "NumberOfAverages": 1.0,
      "NumberOfPhaseEncodingSteps": 96,
      "PercentPhaseFieldOfView": 100.0,
      "PercentSampling": 100.0,
      "PerformedProcedureStepStartTime": "204337.867000",
      "PhotometricInterpretation": "MONOCHROME2",
      "PixelBandwidth": 590.0,
      "PixelRepresentation": 0,
      "PixelSpacing": [
        2.5,
        2.5
      ],
      "ProtocolName": "fmap_acq-2.5mm",
      "RepetitionTime": 675.0,
      "RescaleIntercept": -4096.0,
      "RescaleSlope": 2.0,
      "RescaleType": "US",
      "Rows": 96,
      "SAR": 0.09294645074263,
      "SamplesPerPixel": 1,
      "ScanningSequence": "GR",
      "SequenceName": "*fm2d2r",
      "SequenceVariant": "SP",
      "SeriesDescription": "fmap_acq-2.5mm",
      "SeriesNumber": 7,
      "SeriesTime": "210123.463000",
      "SliceThickness": 2.5,
      "SoftwareVersions": "syngo MR E11",
      "SpacingBetweenSlices": 2.5,
      "SpecificCharacterSet": "ISO_IR 100",
      "StudyID": "2",
      "StudyTime": "204337.766000",
      "TransmitCoilName": "Body",
      "VariableFlipAngleFlag": "N",
      "WindowCenterWidthExplanation": "Algo1",
      "dBdt": 0.0
    },
    "slices": {
      "AcquisitionTime": [
        "205914.050000",
        "205913.712500",
        "205914.065000",
        "205913.727500",
        "205914.077500",
        "205913.740000",
        "205914.092500",
        "205913.755000",
        "205914.105000",
        "205913.767500",
        "205914.120000",
        "205913.782500",
        "205914.135000",
        "205913.797500",
        "205914.147500",
        "205913.810000",
        "205914.162500",
        "205913.825000",
        "205914.177500",
        "205913.840000",
        "205914.190000",
        "205913.852500",
        "205914.205000",
        "205913.867500",
        "205914.217500",
        "205913.880000",
        "205914.232500",
        "205913.895000",
        "205914.247500",
        "205913.910000",
        "205914.260000",
        "205913.922500",
        "205914.275000",
        "205913.937500",
        "205914.290000",
        "205913.952500",
        "205914.302500",
        "205913.965000",
        "205914.317500",
        "205913.980000",
        "205914.330000",
        "205913.992500",
        "205914.345000",
        "205914.007500",
        "205914.360000",
        "205914.022500",
        "205914.372500",
        "205914.035000"
      ],
      "ContentTime": [
        "210123.515000",
        "210123.465000",
        "210123.517000",
        "210123.468000",
        "210123.519000",
        "210123.470000",
        "210123.521000",
        "210123.472000",
        "210123.524000",
        "210123.474000",
        "210123.526000",
        "210123.476000",
        "210123.528000",
        "210123.478000",
        "210123.530000",
        "210123.480000",
        "210123.532000",
        "210123.482000",
        "210123.534000",
        "210123.484000",
        "210123.536000",
        "210123.486000",
        "210123.538000",
        "210123.489000",
        "210123.540000",
        "210123.491000",
        "210123.542000",
        "210123.493000",
        "210123.544000",
        "210123.495000",
        "210123.546000",
        "210123.497000",
        "210123.548000",
        "210123.499000",
        "210123.550000",
        "210123.501000",
        "210123.552000",
        "210123.503000",
        "210123.554000",
        "210123.505000",
        "210123.556000",
        "210123.507000",
        "210123.558000",
        "210123.509000",
        "210123.560000",
        "210123.511000",
        "210123.563000",
        "210123.513000"
      ],
      "CsaImage.ICE_Dims": [
        "X_2_1_1_1_1_1_25_1_1_1_1_18",
        "X_2_1_1_1_1_1_1_1_1_2_1_18",
        "X_2_1_1_1_1_1_26_1_1_3_1_18",
        "X_2_1_1_1_1_1_2_1_1_4_1_18",
        "X_2_1_1_1_1_1_27_1_1_5_1_18",
        "X_2_1_1_1_1_1_3_1_1_6_1_18",
        "X_2_1_1_1_1_1_28_1_1_7_1_18",
        "X_2_1_1_1_1_1_4_1_1_8_1_18",
        "X_2_1_1_1_1_1_29_1_1_9_1_18",
        "X_2_1_1_1_1_1_5_1_1_10_1_18",
        "X_2_1_1_1_1_1_30_1_1_11_1_18",
        "X_2_1_1_1_1_1_6_1_1_12_1_18",
        "X_2_1_1_1_1_1_31_1_1_13_1_18",
        "X_2_1_1_1_1_1_7_1_1_14_1_18",
        "X_2_1_1_1_1_1_32_1_1_15_1_18",
        "X_2_1_1_1_1_1_8_1_1_16_1_18",
        "X_2_1_1_1_1_1_33_1_1_17_1_18",
        "X_2_1_1_1_1_1_9_1_1_18_1_18",
        "X_2_1_1_1_1_1_34_1_1_19_1_18",
        "X_2_1_1_1_1_1_10_1_1_20_1_18",
        "X_2_1_1_1_1_1_35_1_1_21_1_18",
        "X_2_1_1_1_1_1_11_1_1_22_1_18",
        "X_2_1_1_1_1_1_36_1_1_23_1_18",
        "X_2_1_1_1_1_1_12_1_1_24_1_18",
        "X_2_1_1_1_1_1_37_1_1_25_1_18",
        "X_2_1_1_1_1_1_13_1_1_26_1_18",
        "X_2_1_1_1_1_1_38_1_1_27_1_18",
        "X_2_1_1_1_1_1_14_1_1_28_1_18",
        "X_2_1_1_1_1_1_39_1_1_29_1_18",
        "X_2_1_1_1_1_1_15_1_1_30_1_18",
        "X_2_1_1_1_1_1_40_1_1_31_1_18",
        "X_2_1_1_1_1_1_16_1_1_32_1_18",
        "X_2_1_1_1_1_1_41_1_1_33_1_18",
        "X_2_1_1_1_1_1_17_1_1_34_1_18",
        "X_2_1_1_1_1_1_42_1_1_35_1_18",
        "X_2_1_1_1_1_1_18_1_1_36_1_18",
        "X_2_1_1_1_1_1_43_1_1_37_1_18",
        "X_2_1_1_1_1_1_19_1_1_38_1_18",
        "X_2_1_1_1_1_1_44_1_1_39_1_18",
        "X_2_1_1_1_1_1_20_1_1_40_1_18",
        "X_2_1_1_1_1_1_45_1_1_41_1_18",
        "X_2_1_1_1_1_1_21_1_1_42_1_18",
        "X_2_1_1_1_1_1_46_1_1_43_1_18",
        "X_2_1_1_1_1_1_22_1_1_44_1_18",
        "X_2_1_1_1_1_1_47_1_1_45_1_18",
        "X_2_1_1_1_1_1_23_1_1_46_1_18",
        "X_2_1_1_1_1_1_48_1_1_47_1_18",
        "X_2_1_1_1_1_1_24_1_1_48_1_18"
      ],
      "CsaImage.ProtocolSliceNumber": [
        0,
        1,
        2,
        3,
        4,
        5,
        6,
        7,
        8,
        9,
        10,
        11,
        12,
        13,
        14,
        15,
        16,
        17,
        18,
        19,
        20,
        21,
        22,
        23,
        24,
        25,
        26,
        27,
        28,
        29,
        30,
        31,
        32,
        33,
        34,
        35,
        36,
        37,
        38,
        39,
        40,
        41,
        42,
        43,
        44,
        45,
        46,
        47
      ],
      "CsaImage.SlicePosition_PCS": [
        [
          -118.05300445,
          -132.99811435,
          -45.27598616
        ],
        [
          -117.96633578,
          -132.97644211,
          -42.77758452
        ],
        [
          -117.87966711,
          -132.95476986,
          -40.27918288
        ],
        [
          -117.79299844,
          -132.93309761,
          -37.78077742
        ],
        [
          -117.70632977,
          -132.91142536,
          -35.28237578
        ],
        [
          -117.6196611,
          -132.88975311,
          -32.78397033
        ],
        [
          -117.53299243,
          -132.86807991,
          -30.28556868
        ],
        [
          -117.44632373,
          -132.84640766,
          -27.78716704
        ],
        [
          -117.35965506,
          -132.82473541,
          -25.28876159
        ],
        [
          -117.27298637,
          -132.80306316,
          -22.79035804
        ],
        [
          -117.1863177,
          -132.78139091,
          -20.29195449
        ],
        [
          -117.09964903,
          -132.75971866,
          -17.79355284
        ],
        [
          -117.01298035,
          -132.73804546,
          -15.2951493
        ],
        [
          -116.92631168,
          -132.71637321,
          -12.79674575
        ],
        [
          -116.83964301,
          -132.69470096,
          -10.2983422
        ],
        [
          -116.75297434,
          -132.67302871,
          -7.79993865
        ],
        [
          -116.66630567,
          -132.65135647,
          -5.30153605
        ],
        [
          -116.57963697,
          -132.62968422,
          -2.8031325
        ],
        [
          -116.49296833,
          -132.60801101,
          -0.30472943
        ],
        [
          -116.40629966,
          -132.58633877,
          2.19367388
        ],
        [
          -116.31963093,
          -132.56466652,
          4.69207719
        ],
        [
          -116.23296226,
          -132.54299427,
          7.1904805
        ],
        [
          -116.14629359,
          -132.52132202,
          9.68888381
        ],
        [
          -116.05962492,
          -132.49964977,
          12.18728688
        ],
        [
          -115.97295625,
          -132.47797657,
          14.68569043
        ],
        [
          -115.88628764,
          -132.45630432,
          17.18409303
        ],
        [
          -115.79961891,
          -132.43463207,
          19.68249658
        ],
        [
          -115.71295018,
          -132.41295982,
          22.18090013
        ],
        [
          -115.62628157,
          -132.39128757,
          24.67930368
        ],
        [
          -115.53961284,
          -132.36961532,
          27.17770723
        ],
        [
          -115.45294423,
          -132.34794212,
          29.67610887
        ],
        [
          -115.3662755,
          -132.32626987,
          32.17451242
        ],
        [
          -115.27960688,
          -132.30459762,
          34.67291597
        ],
        [
          -115.19293816,
          -132.28292537,
          37.17132142
        ],
        [
          -115.10626954,
          -132.26125313,
          39.66972306
        ],
        [
          -115.01960093,
          -132.23958088,
          42.16812471
        ],
        [
          -114.9329322,
          -132.21790863,
          44.66653016
        ],
        [
          -114.84626347,
          -132.19623543,
          47.1649318
        ],
        [
          -114.75959474,
          -132.17456318,
          49.66333726
        ],
        [
          -114.67292625,
          -132.15289093,
          52.1617389
        ],
        [
          -114.58625752,
          -132.13121868,
          54.66014055
        ],
        [
          -114.49958879,
          -132.10954643,
          57.158546
        ],
        [
          -114.41292006,
          -132.08787418,
          59.65694764
        ],
        [
          -114.32625133,
          -132.06620098,
          62.1553531
        ],
        [
          -114.23958284,
          -132.04452873,
          64.65375474
        ],
        [
          -114.15291411,
          -132.02285648,
          67.1521602
        ],
        [
          -114.06624538,
          -132.00118423,
          69.65056184
        ],
        [
          -113.97957665,
          -131.97951198,
          72.1489673
        ]
      ],
      "CsaImage.TimeAfterStart": [
        1.015,
        0.6775,
        1.03,
        0.6925,
        1.0425,
        0.705,
        1.0575,
        0.72,
        1.07,
        0.7325,
        1.085,
        0.7475,
        1.1,
        0.7625,
        1.1125,
        0.775,
        1.1275,
        0.79,
        1.1425,
        0.805,
        1.155,
        0.8175,
        1.17,
        0.8325,
        1.1825,
        0.845,
        1.1975,
        0.86,
        1.2125,
        0.875,
        1.225,
        0.8875,
        1.24,
        0.9025,
        1.255,
        0.9175,
        1.2675,
        0.93,
        1.2825,
        0.945,
        1.295,
        0.9575,
        1.31,
        0.9725,
        1.325,
        0.9875,
        1.3375,
        1.0
      ],
      "ImagePositionPatient": [
        [
          -118.05300444981,
          -132.9981143542,
          -45.275986163863
        ],
        [
          -117.96633577963,
          -132.97644210536,
          -42.777584522018
        ],
        [
          -117.87966710946,
          -132.95476985652,
          -40.279182880172
        ],
        [
          -117.79299843928,
          -132.93309760768,
          -37.780777423629
        ],
        [
          -117.7063297691,
          -132.91142535884,
          -35.282375781783
        ],
        [
          -117.61966109892,
          -132.88975311,
          -32.78397032524
        ],
        [
          -117.53299242875,
          -132.86807990749,
          -30.285568683395
        ],
        [
          -117.44632372877,
          -132.84640765865,
          -27.787167041549
        ],
        [
          -117.35965505859,
          -132.82473540981,
          -25.288761585006
        ],
        [
          -117.27298637351,
          -132.80306316097,
          -22.790358035811
        ],
        [
          -117.18631770333,
          -132.78139091213,
          -20.291954486617
        ],
        [
          -117.0996490257,
          -132.75971866328,
          -17.793552844771
        ],
        [
          -117.01298035273,
          -132.73804546077,
          -15.295149295577
        ],
        [
          -116.9263116779,
          -132.71637321193,
          -12.796745746383
        ],
        [
          -116.83964300772,
          -132.69470096309,
          -10.298342197188
        ],
        [
          -116.75297433754,
          -132.67302871425,
          -7.7999386479941
        ],
        [
          -116.66630566737,
          -132.65135646541,
          -5.3015360524741
        ],
        [
          -116.57963696739,
          -132.62968421657,
          -2.8031325032798
        ],
        [
          -116.49296832701,
          -132.60801101405,
          -0.3047294309226
        ],
        [
          -116.40629965683,
          -132.58633876521,
          2.1936738798532
        ],
        [
          -116.31963092705,
          -132.56466651637,
          4.6920771906289
        ],
        [
          -116.23296225687,
          -132.54299426753,
          7.1904805014047
        ],
        [
          -116.1462935867,
          -132.52132201869,
          9.6888838121804
        ],
        [
          -116.05962491652,
          -132.49964976985,
          12.187286884538
        ],
        [
          -115.97295624634,
          -132.47797656734,
          14.685690433732
        ],
        [
          -115.88628763577,
          -132.4563043185,
          17.184093029252
        ],
        [
          -115.79961890599,
          -132.43463206966,
          19.682496578446
        ],
        [
          -115.7129501762,
          -132.41295982082,
          22.180900127641
        ],
        [
          -115.62628156563,
          -132.39128757198,
          24.679303676835
        ],
        [
          -115.53961283585,
          -132.36961532314,
          27.177707226029
        ],
        [
          -115.45294422528,
          -132.34794212062,
          29.676108867875
        ],
        [
          -115.3662754955,
          -132.32626987178,
          32.174512417069
        ],
        [
          -115.27960688492,
          -132.30459762294,
          34.672915966264
        ],
        [
          -115.19293815514,
          -132.2829253741,
          37.171321422807
        ],
        [
          -115.10626954457,
          -132.26125312526,
          39.669723064652
        ],
        [
          -115.01960093399,
          -132.23958087642,
          42.168124706498
        ],
        [
          -114.93293220421,
          -132.21790862758,
          44.666530163041
        ],
        [
          -114.84626347443,
          -132.19623542506,
          47.164931804887
        ],
        [
          -114.75959474465,
          -132.17456317622,
          49.66333726143
        ],
        [
          -114.67292625328,
          -132.15289092738,
          52.161738903275
        ],
        [
          -114.5862575235,
          -132.13121867854,
          54.660140545121
        ],
        [
          -114.49958879372,
          -132.1095464297,
          57.158546001664
        ],
        [
          -114.41292006394,
          -132.08787418086,
          59.65694764351
        ],
        [
          -114.32625133416,
          -132.06620097835,
          62.155353100053
        ],
        [
          -114.23958284279,
          -132.04452872951,
          64.653754741898
        ],
        [
          -114.15291411301,
          -132.02285648067,
          67.152160198441
        ],
        [
          -114.06624538323,
          -132.00118423183,
          69.650561840287
        ],
        [
          -113.97957665345,
          -131.97951198299,
          72.14896729683
        ]
      ],
      "InstanceCreationTime": [
        "210123.515000",
        "210123.465000",
        "210123.517000",
        "210123.468000",
        "210123.519000",
        "210123.470000",
        "210123.521000",
        "210123.472000",
        "210123.524000",
        "210123.474000",
        "210123.526000",
        "210123.476000",
        "210123.528000",
        "210123.478000",
        "210123.530000",
        "210123.480000",
        "210123.532000",
        "210123.482000",
        "210123.534000",
        "210123.484000",
        "210123.536000",
        "210123.486000",
        "210123.538000",
        "210123.489000",
        "210123.540000",
        "210123.491000",
        "210123.542000",
        "210123.493000",
        "210123.544000",
        "210123.495000",
        "210123.546000",
        "210123.497000",
        "210123.548000",
        "210123.499000",
        "210123.550000",
        "210123.501000",
        "210123.552000",
        "210123.503000",
        "210123.554000",
        "210123.505000",
        "210123.556000",
        "210123.507000",
        "210123.558000",
        "210123.509000",
        "210123.560000",
        "210123.511000",
        "210123.563000",
        "210123.513000"
      ],
      "InstanceNumber": [
        1,
        2,
        3,
        4,
        5,
        6,
        7,
        8,
        9,
        10,
        11,
        12,
        13,
        14,
        15,
        16,
        17,
        18,
        19,
        20,
        21,
        22,
        23,
        24,
        25,
        26,
        27,
        28,
        29,
        30,
        31,
        32,
        33,
        34,
        35,
        36,
        37,
        38,
        39,
        40,
        41,
        42,
        43,
        44,
        45,
        46,
        47,
        48
      ],
      "LargestImagePixelValue": [
        4093,
        4095,
        4092,
        4092,
        4094,
        4095,
        4095,
        4095,
        4093,
        4095,
        4095,
        4093,
        4095,
        4093,
        4091,
        4093,
        4094,
        4095,
        4095,
        4094,
        4093,
        4093,
        4093,
        4093,
        4089,
        4092,
        4093,
        4094,
        4091,
        4095,
        4093,
        4094,
        4092,
        4094,
        4093,
        4094,
        4094,
        4094,
        4095,
        4094,
        4094,
        4095,
        4094,
        4093,
        4095,
        4094,
        4094,
        4094
      ],
      "SliceLocation": [
        -50.492623149551,
        -47.992624767804,
        -45.492626386057,
        -42.992624192049,
        -40.492625810302,
        -37.992623616294,
        -35.49262522628,
        -32.9926268435,
        -30.492624649492,
        -27.992624361098,
        -25.492624073221,
        -22.992625691216,
        -20.492625394974,
        -17.992625106935,
        -15.492624819058,
        -12.99262453118,
        -10.492625196368,
        -7.9926249074577,
        -5.4926250888788,
        -2.9926250392677,
        -0.4926249875903,
        2.0073750620208,
        4.5073751116319,
        7.0073749229766,
        9.5073752191214,
        12.007374551867,
        14.507374841811,
        17.007375131755,
        19.507375417566,
        22.007375707509,
        24.507374095457,
        27.007374385401,
        29.507374671212,
        32.007376867286,
        34.507375246967,
        37.007373626647,
        39.507375822722,
        42.007374214802,
        44.507376410876,
        47.007374786424,
        49.507373170238,
        52.007375366312,
        54.507373750125,
        57.007375954467,
        59.507374330015,
        62.007376526089,
        64.507374909902,
        67.007377105976
      ],
      "SmallestImagePixelValue": [
        0,
        0,
        0,
        0,
        0,
        1,
        0,
        0,
        0,
        0,
        0,
        4,
        1,
        0,
        0,
        0,
        0,
        0,
        2,
        4,
        4,
        0,
        0,
        3,
        0,
        0,
        0,
        0,
        1,
        1,
        0,
        0,
        0,
        1,
        0,
        0,
        0,
        1,
        0,
        0,
        0,
        0,
        0,
        0,
        0,
        1,
        0,
        0
      ],
      "WindowCenter": [
        -228.0,
        -244.0,
        -192.0,
        -130.0,
        -102.0,
        -54.0,
        -104.0,
        -176.0,
        -224.0,
        -292.0,
        -348.0,
        -496.0,
        -432.0,
        -428.0,
        -424.0,
        -376.0,
        -356.0,
        -158.0,
        -194.0,
        -192.0,
        -224.0,
        -176.0,
        -228.0,
        -166.0,
        -324.0,
        -290.0,
        -156.0,
        -240.0,
        -140.0,
        -50.0,
        -76.0,
        -64.0,
        -110.0,
        -100.0,
        -60.0,
        -36.0,
        -68.0,
        -74.0,
        -92.0,
        -96.0,
        -118.0,
        -170.0,
        -224.0,
        -348.0,
        -348.0,
        -350.0,
        -364.0,
        -372.0
      ],
      "WindowWidth": [
        6546.0,
        6572.0,
        6628.0,
        6696.0,
        6672.0,
        6584.0,
        6558.0,
        6388.0,
        6168.0,
        5980.0,
        5756.0,
        4932.0,
        4870.0,
        4856.0,
        4826.0,
        4824.0,
        4764.0,
        5474.0,
        5452.0,
        5442.0,
        5382.0,
        5444.0,
        5116.0,
        5282.0,
        4682.0,
        4714.0,
        5322.0,
        4684.0,
        5152.0,
        5314.0,
        5310.0,
        5418.0,
        5312.0,
        5458.0,
        5568.0,
        5706.0,
        5676.0,
        5818.0,
        5746.0,
        5852.0,
        5878.0,
        5892.0,
        5956.0,
        5904.0,
        6014.0,
        6012.0,
        5774.0,
        5972.0
      ]
    }
  }
}