{
  "AcquisitionMatrixPE": 96,
  "AcquisitionNumber": 1,
  "AcquisitionTime": "20:40:39.045000",
  "BandwidthPerPixelPhaseEncode": 18.939,
  "BaseResolution": 96,
  "BodyPartExamined": "BRAIN",
  "ConsistencyInfo": "N4_VE11C_LATEST_20160120",
  "ConversionSoftware": "dcm2niix",
  "ConversionSoftwareVersion": "v1.0.20190902",
  "DerivedVendorReportedEchoSpacing": 0.000550011,
  "DeviceSerialNumber": "66112",
  "DwellTime": 2.2e-06,
  "EchoTime": 0.033,
  "EchoTrainLength": 96,
  "EffectiveEchoSpacing": 0.000550011,
  "FlipAngle": 59,
  "ImageOrientationPatientDICOM": [0.999791, -0.0152239, 0.0136601, 0.0129135, 0.987727, 0.155654],
  "ImageType": [
    "ORIGINAL",
    "PRIMARY",
    "FMRI",
    "NONE",
    "ND",
    "NORM",
    "MOSAIC"
],
  "ImagingFrequency": 123.252,
  "InPlanePhaseEncodingDirectionDICOM": "COL",
  "InstitutionAddress": "Maynard_3_Hanover_NH_US_03755",
  "InstitutionName": "Dartmouth_College_-_PBS",
  "InstitutionalDepartmentName": "Department",
  "MRAcquisitionType": "2D",
  "MagneticFieldStrength": 3,
  "Manufacturer": "Siemens",
  "ManufacturersModelName": "Prisma",
  "Modality": "MR",
  "MultibandAccelerationFactor": 4,
  "PartialFourier": 1,
  "PatientPosition": "HFS",
  "PercentPhaseFOV": 100,
  "PhaseEncodingDirection": "j-",
  "PhaseEncodingSteps": 96,
  "PhaseResolution": 1,
  "PixelBandwidth": 2365,
  "ProcedureStepDescription": "Gobbini_Matteo_1037_budapest",
  "ProtocolName": "func_run-03_task-movie",
  "PulseSequenceDetails": "%SiemensSeq%_ep2d_bold",
  "ReceiveCoilActiveElements": "HEA;HEP",
  "ReceiveCoilName": "Head_32",
  "ReconMatrixPE": 96,
  "RefLinesPE": 12,
  "RepetitionTime": 1,
  "SAR": 0.0453508,
  "ScanOptions": "FS",
  "ScanningSequence": "EP",
  "SequenceName": "_epfid2d1_96",
  "SequenceVariant": "SK",
  "SeriesDescription": "func_run-03_task-movie",
  "SeriesNumber": 22,
  "ShimSetting": [4144, -7748, -7306, 633, -68, -148, -27, 66],
  "SliceThickness": 2.5,
  "SliceTiming": [0.735, 0, 0.49, 0.0825, 0.5725, 0.1625, 0.6525, 0.3275, 0.8175, 0.4075, 0.8975, 0.245, 0.735, 0, 0.49, 0.0825, 0.5725, 0.1625, 0.6525, 0.3275, 0.8175, 0.4075, 0.8975, 0.245, 0.735, 0, 0.49, 0.0825, 0.5725, 0.1625, 0.6525, 0.3275, 0.8175, 0.4075, 0.8975, 0.245, 0.735, 0, 0.49, 0.0825, 0.5725, 0.1625, 0.6525, 0.3275, 0.8175, 0.4075, 0.8975, 0.245],
  "SoftwareVersions": "syngo_MR_E11",
  "SpacingBetweenSlices": 2.5,
  "StationName": "AWP66112",
  "TaskName": "movie",
  "TotalReadoutTime": 0.0522511,
  "TxRefAmp": 228.607,
  "dcmmeta_affine": [
    [-2.499476909637451, 0.032283756881952286, 0.03965521231293678, 121.9203109741211],
    [0.03805972635746002, 2.46931791305542, 0.3886135518550873, -109.23731231689453],
    [0.03415016829967499, -0.3891359567642212, 2.4692928791046143, -58.2114372253418],
    [0.0, 0.0, 0.0, 1.0]
],
  "dcmmeta_reorient_transform": [
    [0.0, -1.0, 0.0, 95.0],
    [1.0, 0.0, 0.0, 0.0],
    [0.0, 0.0, 1.0, 0.0],
    [0.0, 0.0, 0.0, 1.0]
],
  "dcmmeta_shape": [96, 96, 48, 535],
  "dcmmeta_slice_dim": 2,
  "dcmmeta_version": 0.6,
  "global": {
    "const": {
      "AccessionNumber": "A001085",
      "AcquisitionMatrix": [96, 0, 0, 96],
      "AngioFlag": "N",
      "BitsAllocated": 16,
      "BitsStored": 12,
      "BodyPartExamined": "BRAIN",
      "Columns": 672,
      "EchoNumbers": 1,
      "EchoTime": 33.0,
      "EchoTrainLength": 96,
      "FlipAngle": 59.0,
      "HighBit": 11,
      "ImageOrientationPatient": [0.99979079598675, -0.0152238902243, 0.01366006685984, 0.0129135023148, 0.98772716691127, 0.15565437739878],
      "ImagePositionPatient": [-854.13436482288, -825.55024768686, -217.08575121923],
      "ImageType": [
        "ORIGINAL",
        "PRIMARY",
        "FMRI",
        "NONE",
        "ND",
        "NORM",
        "MOSAIC"
],
      "ImagedNucleus": "1H",
      "ImagingFrequency": 123.252331,
      "InPlanePhaseEncodingDirection": "COL",
      "MRAcquisitionType": "2D",
      "MagneticFieldStrength": 3.0,
      "Manufacturer": "SIEMENS",
      "ManufacturerModelName": "Prisma",
      "Modality": "MR",
      "NumberOfAverages": 1.0,
      "NumberOfPhaseEncodingSteps": 96,
      "PercentPhaseFieldOfView": 100.0,
      "PercentSampling": 100.0,
      "PerformedProcedureStepStartTime": "200034.557000",
      "PhotometricInterpretation": "MONOCHROME2",
      "PixelBandwidth": 2365.0,
      "PixelRepresentation": 0,
      "PixelSpacing": [2.5, 2.5],
      "ProtocolName": "func_run-03_task-movie",
      "RepetitionTime": 1000.0,
      "Rows": 672,
      "SAR": 0.04535075272095,
      "SamplesPerPixel": 1,
      "ScanOptions": "FS",
      "ScanningSequence": "EP",
      "SequenceName": "*epfid2d1_96",
      "SequenceVariant": "SK",
      "SeriesDescription": "func_run-03_task-movie",
      "SeriesNumber": 22,
      "SeriesTime": "204040.219000",
      "SliceLocation": -72.542962095794,
      "SliceThickness": 2.5,
      "SmallestImagePixelValue": 0,
      "SoftwareVersions": "syngo MR E11",
      "SpacingBetweenSlices": 2.5000000098713,
      "SpecificCharacterSet": "ISO_IR 100",
      "StudyID": "1",
      "StudyTime": "200034.501000",
      "TransmitCoilName": "Body",
      "VariableFlipAngleFlag": "N",
      "WindowCenterWidthExplanation": "Algo1",
      "dBdt": 0.0},
    "slices": {}
  },
  "time": {
    "samples": {
      "AcquisitionNumber": [1, 2, 3, 4, 5, 6, 7, 8, 9, 10, 11, 12, 13, 14, 15, 16, 17, 18, 19, 20, 21, 22, 23, 24, 25, 26, 27, 28, 29, 30, 31, 32, 33, 34, 35, 36, 37, 38, 39, 40, 41, 42, 43, 44, 45, 46, 47, 48, 49, 50, 51, 52, 53, 54, 55, 56, 57, 58, 59, 60, 61, 62, 63, 64, 65, 66, 67, 68, 69, 70, 71, 72, 73, 74, 75, 76, 77, 78, 79, 80, 81, 82, 83, 84, 85, 86, 87, 88, 89, 90, 91, 92, 93, 94, 95, 96, 97, 98, 99, 100, 101, 102, 103, 104, 105, 106, 107, 108, 109, 110, 111, 112, 113, 114, 115, 116, 117, 118, 119, 120, 121, 122, 123, 124, 125, 126, 127, 128, 129, 130, 131, 132, 133, 134, 135, 136, 137, 138, 139, 140, 141, 142, 143, 144, 145, 146, 147, 148, 149, 150, 151, 152, 153, 154, 155, 156, 157, 158, 159, 160, 161, 162, 163, 164, 165, 166, 167, 168, 169, 170, 171, 172, 173, 174, 175, 176, 177, 178, 179, 180, 181, 182, 183, 184, 185, 186, 187, 188, 189, 190, 191, 192, 193, 194, 195, 196, 197, 198, 199, 200, 201, 202, 203, 204, 205, 206, 207, 208, 209, 210, 211, 212, 213, 214, 215, 216, 217, 218, 219, 220, 221, 222, 223, 224, 225, 226, 227, 228, 229, 230, 231, 232, 233, 234, 235, 236, 237, 238, 239, 240, 241, 242, 243, 244, 245, 246, 247, 248, 249, 250, 251, 252, 253, 254, 255, 256, 257, 258, 259, 260, 261, 262, 263, 264, 265, 266, 267, 268, 269, 270, 271, 272, 273, 274, 275, 276, 277, 278, 279, 280, 281, 282, 283, 284, 285, 286, 287, 288, 289, 290, 291, 292, 293, 294, 295, 296, 297, 298, 299, 300, 301, 302, 303, 304, 305, 306, 307, 308, 309, 310, 311, 312, 313, 314, 315, 316, 317, 318, 319, 320, 321, 322, 323, 324, 325, 326, 327, 328, 329, 330, 331, 332, 333, 334, 335, 336, 337, 338, 339, 340, 341, 342, 343, 344, 345, 346, 347, 348, 349, 350, 351, 352, 353, 354, 355, 356, 357, 358, 359, 360, 361, 362, 363, 364, 365, 366, 367, 368, 369, 370, 371, 372, 373, 374, 375, 376, 377, 378, 379, 380, 381, 382, 383, 384, 385, 386, 387, 388, 389, 390, 391, 392, 393, 394, 395, 396, 397, 398, 399, 400, 401, 402, 403, 404, 405, 406, 407, 408, 409, 410, 411, 412, 413, 414, 415, 416, 417, 418, 419, 420, 421, 422, 423, 424, 425, 426, 427, 428, 429, 430, 431, 432, 433, 434, 435, 436, 437, 438, 439, 440, 441, 442, 443, 444, 445, 446, 447, 448, 449, 450, 451, 452, 453, 454, 455, 456, 457, 458, 459, 460, 461, 462, 463, 464, 465, 466, 467, 468, 469, 470, 471, 472, 473, 474, 475, 476, 477, 478, 479, 480, 481, 482, 483, 484, 485, 486, 487, 488, 489, 490, 491, 492, 493, 494, 495, 496, 497, 498, 499, 500, 501, 502, 503, 504, 505, 506, 507, 508, 509, 510, 511, 512, 513, 514, 515, 516, 517, 518, 519, 520, 521, 522, 523, 524, 525, 526, 527, 528, 529, 530, 531, 532, 533, 534, 535],
      "AcquisitionTime": ["204039.045000", "204040.045000", "204041.045000", "204042.045000", "204043.045000", "204044.045000", "204045.045000", "204046.045000", "204047.045000", "204048.045000", "204049.045000", "204050.045000", "204051.045000", "204052.045000", "204053.045000", "204054.045000", "204055.045000", "204056.045000", "204057.045000", "204058.045000", "204059.045000", "204100.045000", "204101.045000", "204102.045000", "204103.045000", "204104.045000", "204105.045000", "204106.045000", "204107.045000", "204108.045000", "204109.045000", "204110.045000", "204111.045000", "204112.045000", "204113.045000", "204114.045000", "204115.045000", "204116.045000", "204117.045000", "204118.045000", "204119.045000", "204120.045000", "204121.045000", "204122.045000", "204123.045000", "204124.045000", "204125.045000", "204126.045000", "204127.045000", "204128.045000", "204129.045000", "204130.045000", "204131.045000", "204132.045000", "204133.045000", "204134.045000", "204135.045000", "204136.045000", "204137.045000", "204138.045000", "204139.045000", "204140.045000", "204141.045000", "204142.045000", "204143.045000", "204144.045000", "204145.045000", "204146.045000", "204147.045000", "204148.045000", "204149.045000", "204150.045000", "204151.045000", "204152.045000", "204153.045000", "204154.045000", "204155.045000", "204156.045000", "204157.045000", "204158.045000", "204159.045000", "204200.045000", "204201.045000", "204202.045000", "204203.045000", "204204.045000", "204205.045000", "204206.045000", "204207.045000", "204208.045000", "204209.045000", "204210.045000", "204211.045000", "204212.045000", "204213.045000", "204214.045000", "204215.045000", "204216.045000", "204217.045000", "204218.045000", "204219.045000", "204220.045000", "204221.045000", "204222.045000", "204223.045000", "204224.045000", "204225.045000", "204226.045000", "204227.045000", "204228.045000", "204229.045000", "204230.045000", "204231.045000", "204232.045000", "204233.045000", "204234.045000", "204235.045000", "204236.045000", "204237.045000", "204238.045000", "204239.045000", "204240.045000", "204241.045000", "204242.045000", "204243.045000", "204244.045000", "204245.045000", "204246.045000", "204247.045000", "204248.045000", "204249.045000", "204250.045000", "204251.045000", "204252.045000", "204253.045000", "204254.045000", "204255.045000", "204256.045000", "204257.045000", "204258.045000", "204259.045000", "204300.045000", "204301.045000", "204302.045000", "204303.045000", "204304.045000", "204305.045000", "204306.045000", "204307.045000", "204308.045000", "204309.045000", "204310.045000", "204311.045000", "204312.045000", "204313.045000", "204314.045000", "204315.045000", "204316.045000", "204317.045000", "204318.045000", "204319.045000", "204320.045000", "204321.045000", "204322.045000", "204323.045000", "204324.045000", "204325.045000", "204326.045000", "204327.045000", "204328.045000", "204329.045000", "204330.045000", "204331.045000", "204332.045000", "204333.045000", "204334.045000", "204335.045000", "204336.045000", "204337.045000", "204338.045000", "204339.045000", "204340.045000", "204341.045000", "204342.045000", "204343.045000", "204344.045000", "204345.045000", "204346.045000", "204347.045000", "204348.045000", "204349.045000", "204350.045000", "204351.045000", "204352.045000", "204353.045000", "204354.045000", "204355.045000", "204356.045000", "204357.045000", "204358.045000", "204359.045000", "204400.045000", "204401.045000", "204402.045000", "204403.045000", "204404.045000", "204405.045000", "204406.045000", "204407.045000", "204408.045000", "204409.045000", "204410.045000", "204411.045000", "204412.045000", "204413.045000", "204414.045000", "204415.045000", "204416.045000", "204417.045000", "204418.045000", "204419.045000", "204420.045000", "204421.045000", "204422.045000", "204423.045000", "204424.045000", "204425.045000", "204426.045000", "204427.045000", "204428.045000", "204429.045000", "204430.045000", "204431.045000", "204432.045000", "204433.045000", "204434.045000", "204435.045000", "204436.045000", "204437.045000", "204438.045000", "204439.045000", "204440.045000", "204441.045000", "204442.045000", "204443.045000", "204444.045000", "204445.045000", "204446.045000", "204447.045000", "204448.045000", "204449.045000", "204450.045000", "204451.045000", "204452.045000", "204453.045000", "204454.045000", "204455.045000", "204456.045000", "204457.045000", "204458.045000", "204459.045000", "204500.045000", "204501.045000", "204502.045000", "204503.045000", "204504.045000", "204505.045000", "204506.045000", "204507.045000", "204508.045000", "204509.045000", "204510.045000", "204511.045000", "204512.045000", "204513.045000", "204514.045000", "204515.045000", "204516.045000", "204517.045000", "204518.045000", "204519.045000", "204520.045000", "204521.045000", "204522.045000", "204523.045000", "204524.045000", "204525.045000", "204526.045000", "204527.045000", "204528.045000", "204529.045000", "204530.045000", "204531.045000", "204532.045000", "204533.045000", "204534.045000", "204535.045000", "204536.045000", "204537.045000", "204538.045000", "204539.045000", "204540.045000", "204541.045000", "204542.045000", "204543.045000", "204544.045000", "204545.045000", "204546.045000", "204547.045000", "204548.045000", "204549.045000", "204550.045000", "204551.045000", "204552.045000", "204553.045000", "204554.045000", "204555.045000", "204556.045000", "204557.045000", "204558.045000", "204559.045000", "204600.045000", "204601.045000", "204602.045000", "204603.045000", "204604.045000", "204605.045000", "204606.045000", "204607.045000", "204608.045000", "204609.045000", "204610.045000", "204611.045000", "204612.045000", "204613.045000", "204614.045000", "204615.045000", "204616.045000", "204617.045000", "204618.045000", "204619.045000", "204620.045000", "204621.045000", "204622.045000", "204623.045000", "204624.045000", "204625.045000", "204626.045000", "204627.045000", "204628.045000", "204629.045000", "204630.045000", "204631.045000", "204632.045000", "204633.045000", "204634.045000", "204635.045000", "204636.045000", "204637.045000", "204638.045000", "204639.045000", "204640.045000", "204641.045000", "204642.045000", "204643.045000", "204644.045000", "204645.045000", "204646.045000", "204647.045000", "204648.045000", "204649.045000", "204650.045000", "204651.045000", "204652.045000", "204653.045000", "204654.045000", "204655.045000", "204656.045000", "204657.045000", "204658.045000", "204659.045000", "204700.045000", "204701.045000", "204702.045000", "204703.045000", "204704.045000", "204705.045000", "204706.045000", "204707.045000", "204708.045000", "204709.045000", "204710.045000", "204711.045000", "204712.045000", "204713.045000", "204714.045000", "204715.045000", "204716.045000", "204717.045000", "204718.045000", "204719.045000", "204720.045000", "204721.045000", "204722.045000", "204723.045000", "204724.045000", "204725.045000", "204726.045000", "204727.045000", "204728.045000", "204729.045000", "204730.045000", "204731.045000", "204732.045000", "204733.045000", "204734.045000", "204735.045000", "204736.045000", "204737.045000", "204738.045000", "204739.045000", "204740.045000", "204741.045000", "204742.045000", "204743.045000", "204744.045000", "204745.045000", "204746.045000", "204747.045000", "204748.045000", "204749.045000", "204750.045000", "204751.045000", "204752.045000", "204753.045000", "204754.045000", "204755.045000", "204756.045000", "204757.045000", "204758.045000", "204759.045000", "204800.045000", "204801.045000", "204802.045000", "204803.045000", "204804.045000", "204805.045000", "204806.045000", "204807.045000", "204808.045000", "204809.045000", "204810.045000", "204811.045000", "204812.045000", "204813.045000", "204814.045000", "204815.045000", "204816.045000", "204817.045000", "204818.045000", "204819.045000", "204820.045000", "204821.045000", "204822.045000", "204823.045000", "204824.045000", "204825.045000", "204826.045000", "204827.045000", "204828.045000", "204829.045000", "204830.045000", "204831.045000", "204832.045000", "204833.045000", "204834.045000", "204835.045000", "204836.045000", "204837.045000", "204838.045000", "204839.045000", "204840.045000", "204841.045000", "204842.045000", "204843.045000", "204844.045000", "204845.045000", "204846.045000", "204847.045000", "204848.045000", "204849.045000", "204850.045000", "204851.045000", "204852.045000", "204853.045000", "204854.045000", "204855.045000", "204856.045000", "204857.045000", "204858.045000", "204859.045000", "204900.045000", "204901.045000", "204902.045000", "204903.045000", "204904.045000", "204905.045000", "204906.045000", "204907.045000", "204908.045000", "204909.045000", "204910.045000", "204911.045000", "204912.045000", "204913.045000", "204914.045000", "204915.045000", "204916.045000", "204917.045000", "204918.045000", "204919.045000", "204920.045000", "204921.045000", "204922.045000", "204923.045000", "204924.045000", "204925.045000", "204926.045000", "204927.045000", "204928.045000", "204929.045000", "204930.045000", "204931.045000", "204932.045000", "204933.045000"],
      "ContentTime": ["204040.223000", "204041.132000", "204042.049000", "204043.062000", "204044.064000", "204045.058000", "204046.086000", "204047.053000", "204048.050000", "204049.064000", "204050.103000", "204051.123000", "204052.075000", "204053.063000", "204054.073000", "204055.029000", "204056.056000", "204057.050000", "204058.102000", "204059.071000", "204100.074000", "204101.053000", "204102.053000", "204103.089000", "204104.070000", "204105.078000", "204106.036000", "204107.070000", "204108.065000", "204109.093000", "204110.068000", "204111.061000", "204112.064000", "204113.054000", "204114.037000", "204115.043000", "204116.047000", "204117.051000", "204118.077000", "204119.032000", "204120.056000", "204121.058000", "204122.039000", "204123.049000", "204124.061000", "204125.057000", "204126.047000", "204127.070000", "204128.066000", "204129.044000", "204130.041000", "204131.160000", "204132.070000", "204133.062000", "204134.049000", "204135.044000", "204136.042000", "204137.056000", "204138.074000", "204139.027000", "204140.065000", "204141.049000", "204142.068000", "204143.122000", "204144.084000", "204145.080000", "204146.079000", "204147.054000", "204148.058000", "204149.031000", "204150.047000", "204151.039000", "204152.063000", "204153.047000", "204154.071000", "204155.062000", "204156.065000", "204157.086000", "204158.061000", "204159.059000", "204200.055000", "204201.071000", "204202.065000", "204203.063000", "204204.084000", "204205.070000", "204206.051000", "204207.079000", "204208.080000", "204209.066000", "204210.057000", "204211.057000", "204212.043000", "204213.058000", "204214.052000", "204215.036000", "204216.046000", "204217.082000", "204218.052000", "204219.075000", "204220.057000", "204221.074000", "204222.060000", "204223.136000", "204224.086000", "204225.061000", "204226.086000", "204227.068000", "204228.057000", "204229.064000", "204230.067000", "204231.075000", "204232.064000", "204233.057000", "204234.066000", "204235.058000", "204236.059000", "204237.071000", "204238.094000", "204239.065000", "204240.060000", "204241.057000", "204242.049000", "204243.034000", "204244.061000", "204245.114000", "204246.057000", "204247.062000", "204248.083000", "204249.077000", "204250.083000", "204251.055000", "204252.066000", "204253.066000", "204254.059000", "204255.036000", "204256.035000", "204257.068000", "204258.072000", "204259.064000", "204300.069000", "204301.071000", "204302.062000", "204303.048000", "204304.074000", "204305.050000", "204306.059000", "204307.085000", "204308.047000", "204309.057000", "204310.126000", "204311.076000", "204312.071000", "204313.049000", "204314.056000", "204315.028000", "204316.066000", "204317.058000", "204318.056000", "204319.111000", "204320.044000", "204321.067000", "204322.082000", "204323.098000", "204324.059000", "204325.047000", "204326.109000", "204327.065000", "204328.127000", "204329.053000", "204330.092000", "204331.092000", "204332.091000", "204333.045000", "204334.058000", "204335.040000", "204336.069000", "204337.052000", "204338.035000", "204339.038000", "204340.073000", "204341.028000", "204342.057000", "204343.082000", "204344.062000", "204345.056000", "204346.053000", "204347.073000", "204348.049000", "204349.024000", "204350.048000", "204351.070000", "204352.075000", "204353.076000", "204354.047000", "204355.102000", "204356.080000", "204357.060000", "204358.083000", "204359.064000", "204400.081000", "204401.059000", "204402.019000", "204403.063000", "204404.060000", "204405.108000", "204406.046000", "204407.059000", "204408.056000", "204409.066000", "204410.107000", "204411.079000", "204412.101000", "204413.091000", "204414.062000", "204415.080000", "204416.075000", "204417.048000", "204418.074000", "204419.068000", "204420.043000", "204421.090000", "204422.096000", "204423.074000", "204424.090000", "204425.063000", "204426.071000", "204427.060000", "204428.041000", "204429.046000", "204430.022000", "204431.068000", "204432.033000", "204433.065000", "204434.052000", "204435.059000", "204436.075000", "204437.038000", "204438.102000", "204439.055000", "204440.063000", "204441.057000", "204442.053000", "204443.038000", "204444.067000", "204445.069000", "204446.069000", "204447.071000", "204448.066000", "204449.068000", "204450.076000", "204451.059000", "204452.073000", "204453.057000", "204454.058000", "204455.012000", "204456.074000", "204457.037000", "204458.068000", "204459.047000", "204500.078000", "204501.053000", "204502.052000", "204503.052000", "204504.069000", "204505.047000", "204506.045000", "204507.064000", "204508.040000", "204509.058000", "204510.062000", "204511.057000", "204512.047000", "204513.049000", "204514.050000", "204515.056000", "204516.061000", "204517.050000", "204518.088000", "204519.091000", "204520.088000", "204521.064000", "204522.062000", "204523.067000", "204524.056000", "204525.060000", "204526.056000", "204527.066000", "204528.055000", "204529.076000", "204530.070000", "204531.032000", "204532.062000", "204533.068000", "204534.039000", "204535.076000", "204536.052000", "204537.065000", "204538.059000", "204539.084000", "204540.044000", "204541.053000", "204542.065000", "204543.061000", "204544.077000", "204545.080000", "204546.045000", "204547.061000", "204548.066000", "204549.050000", "204550.055000", "204551.075000", "204552.058000", "204553.063000", "204554.085000", "204555.088000", "204556.076000", "204557.066000", "204558.060000", "204559.049000", "204600.058000", "204601.073000", "204602.070000", "204603.072000", "204604.078000", "204605.080000", "204606.053000", "204607.043000", "204608.072000", "204609.023000", "204610.079000", "204611.035000", "204612.072000", "204613.046000", "204614.064000", "204615.084000", "204616.043000", "204617.056000", "204618.054000", "204619.055000", "204620.064000", "204621.082000", "204622.076000", "204623.059000", "204624.059000", "204625.082000", "204626.089000", "204627.089000", "204628.044000", "204629.050000", "204630.049000", "204631.085000", "204632.071000", "204633.072000", "204634.085000", "204635.051000", "204636.054000", "204637.073000", "204638.058000", "204639.065000", "204640.049000", "204641.087000", "204642.070000", "204643.069000", "204644.030000", "204645.068000", "204646.064000", "204647.061000", "204648.043000", "204649.044000", "204650.066000", "204651.061000", "204652.062000", "204653.063000", "204654.045000", "204655.074000", "204656.067000", "204657.063000", "204658.063000", "204659.112000", "204700.048000", "204701.051000", "204702.052000", "204703.041000", "204704.017000", "204705.068000", "204706.067000", "204707.069000", "204708.062000", "204709.094000", "204710.060000", "204711.126000", "204712.060000", "204713.093000", "204714.055000", "204715.065000", "204716.063000", "204717.049000", "204718.035000", "204719.092000", "204720.116000", "204721.072000", "204722.077000", "204723.054000", "204724.076000", "204725.052000", "204726.050000", "204727.046000", "204728.053000", "204729.052000", "204730.104000", "204731.058000", "204732.102000", "204733.093000", "204734.058000", "204735.046000", "204736.063000", "204737.066000", "204738.068000", "204739.065000", "204740.058000", "204741.079000", "204742.063000", "204743.045000", "204744.073000", "204745.039000", "204746.056000", "204747.036000", "204748.066000", "204749.064000", "204750.042000", "204751.125000", "204752.078000", "204753.078000", "204754.049000", "204755.035000", "204756.066000", "204757.062000", "204758.036000", "204759.057000", "204800.079000", "204801.052000", "204802.058000", "204803.042000", "204804.057000", "204805.079000", "204806.048000", "204807.079000", "204808.068000", "204809.086000", "204810.048000", "204811.055000", "204812.039000", "204813.029000", "204814.069000", "204815.080000", "204816.092000", "204817.067000", "204818.046000", "204819.073000", "204820.064000", "204821.060000", "204822.056000", "204823.059000", "204824.071000", "204825.074000", "204826.069000", "204827.059000", "204828.071000", "204829.097000", "204830.047000", "204831.036000", "204832.043000", "204833.048000", "204834.074000", "204835.051000", "204836.052000", "204837.048000", "204838.064000", "204839.053000", "204840.035000", "204841.058000", "204842.079000", "204843.048000", "204844.058000", "204845.046000", "204846.061000", "204847.049000", "204848.062000", "204849.072000", "204850.058000", "204851.115000", "204852.085000", "204853.054000", "204854.057000", "204855.067000", "204856.067000", "204857.109000", "204858.091000", "204859.147000", "204900.106000", "204901.093000", "204902.109000", "204903.117000", "204904.091000", "204905.095000", "204906.110000", "204907.085000", "204908.131000", "204909.102000", "204910.097000", "204911.093000", "204912.117000", "204913.102000", "204914.098000", "204915.111000", "204916.109000", "204917.071000", "204918.088000", "204919.110000", "204920.107000", "204921.130000", "204922.098000", "204923.118000", "204924.113000", "204925.106000", "204926.096000", "204927.107000", "204928.104000", "204929.090000", "204930.097000", "204931.091000", "204932.108000", "204933.116000", "204934.096000"],
