{
  "AcquisitionMatrixPE": 96,
  "AcquisitionNumber": 1,
  "AcquisitionTime": "20:50:12.050000",
  "BandwidthPerPixelPhaseEncode": 18.939,
  "BaseResolution": 96,
  "BodyPartExamined": "BRAIN",
  "ConsistencyInfo": "N4_VE11C_LATEST_20160120",
  "ConversionSoftware": "dcm2niix",
  "ConversionSoftwareVersion": "v1.0.20190902",
  "DerivedVendorReportedEchoSpacing": 0.000550011,
  "DeviceSerialNumber": "66112",
  "DwellTime": 2.2e-06,
  "EchoTime": 0.033,
  "EchoTrainLength": 96,
  "EffectiveEchoSpacing": 0.000550011,
  "FlipAngle": 59,
  "ImageOrientationPatientDICOM": [0.999791, -0.0152239, 0.0136601, 0.0129135, 0.987727, 0.155654],
  "ImageType": [
    "ORIGINAL",
    "PRIMARY",
    "FMRI",
    "NONE",
    "ND",
    "NORM",
    "MOSAIC"
],
  "ImagingFrequency": 123.252,
  "InPlanePhaseEncodingDirectionDICOM": "COL",
  "InstitutionAddress": "Maynard_3_Hanover_NH_US_03755",
  "InstitutionName": "Dartmouth_College_-_PBS",
  "InstitutionalDepartmentName": "Department",
  "MRAcquisitionType": "2D",
  "MagneticFieldStrength": 3,
  "Manufacturer": "Siemens",
  "ManufacturersModelName": "Prisma",
  "Modality": "MR",
  "MultibandAccelerationFactor": 4,
  "PartialFourier": 1,
  "PatientPosition": "HFS",
  "PercentPhaseFOV": 100,
  "PhaseEncodingDirection": "j-",
  "PhaseEncodingSteps": 96,
  "PhaseResolution": 1,
  "PixelBandwidth": 2365,
  "ProcedureStepDescription": "Gobbini_Matteo_1037_budapest",
  "ProtocolName": "func_run-04_task-movie",
  "PulseSequenceDetails": "%SiemensSeq%_ep2d_bold",
  "ReceiveCoilActiveElements": "HEA;HEP",
  "ReceiveCoilName": "Head_32",
  "ReconMatrixPE": 96,
  "RefLinesPE": 12,
  "RepetitionTime": 1,
  "SAR": 0.0453875,
  "ScanOptions": "FS",
  "ScanningSequence": "EP",
  "SequenceName": "_epfid2d1_96",
  "SequenceVariant": "SK",
  "SeriesDescription": "func_run-04_task-movie",
  "SeriesNumber": 29,
  "ShimSetting": [4144, -7748, -7306, 633, -68, -148, -27, 66],
  "SliceThickness": 2.5,
  "SliceTiming": [0.735, 0, 0.49, 0.0825, 0.5725, 0.165, 0.655, 0.3275, 0.8175, 0.41, 0.9, 0.245, 0.735, 0, 0.49, 0.0825, 0.5725, 0.165, 0.655, 0.3275, 0.8175, 0.41, 0.9, 0.245, 0.735, 0, 0.49, 0.0825, 0.5725, 0.165, 0.655, 0.3275, 0.8175, 0.41, 0.9, 0.245, 0.735, 0, 0.49, 0.0825, 0.5725, 0.165, 0.655, 0.3275, 0.8175, 0.41, 0.9, 0.245],
  "SoftwareVersions": "syngo_MR_E11",
  "SpacingBetweenSlices": 2.5,
  "StationName": "AWP66112",
  "TaskName": "movie",
  "TotalReadoutTime": 0.0522511,
  "TxRefAmp": 228.607,
  "dcmmeta_affine": [
    [-2.499476909637451, 0.032283756881952286, 0.03965521231293678, 121.9203109741211],
    [0.03805972635746002, 2.46931791305542, 0.3886135518550873, -109.23731231689453],
    [0.03415016829967499, -0.3891359567642212, 2.4692928791046143, -58.2114372253418],
    [0.0, 0.0, 0.0, 1.0]
],
  "dcmmeta_reorient_transform": [
    [0.0, -1.0, 0.0, 95.0],
    [1.0, 0.0, 0.0, 0.0],
    [0.0, 0.0, 1.0, 0.0],
    [0.0, 0.0, 0.0, 1.0]
],
  "dcmmeta_shape": [96, 96, 48, 618],
  "dcmmeta_slice_dim": 2,
  "dcmmeta_version": 0.6,
  "global": {
    "const": {
      "AccessionNumber": "A001085",
      "AcquisitionMatrix": [96, 0, 0, 96],
      "AngioFlag": "N",
      "BitsAllocated": 16,
      "BitsStored": 12,
      "BodyPartExamined": "BRAIN",
      "Columns": 672,
      "EchoNumbers": 1,
      "EchoTime": 33.0,
      "EchoTrainLength": 96,
      "FlipAngle": 59.0,
      "HighBit": 11,
      "ImageOrientationPatient": [0.99979079598675, -0.0152238902243, 0.01366006685984, 0.0129135023148, 0.98772716691127, 0.15565437739878],
      "ImagePositionPatient": [-854.13436482288, -825.55024768686, -217.08575121923],
      "ImageType": [
        "ORIGINAL",
        "PRIMARY",
        "FMRI",
        "NONE",
        "ND",
        "NORM",
        "MOSAIC"
],
      "ImagedNucleus": "1H",
      "ImagingFrequency": 123.252334,
      "InPlanePhaseEncodingDirection": "COL",
      "MRAcquisitionType": "2D",
      "MagneticFieldStrength": 3.0,
      "Manufacturer": "SIEMENS",
      "ManufacturerModelName": "Prisma",
      "Modality": "MR",
      "NumberOfAverages": 1.0,
      "NumberOfPhaseEncodingSteps": 96,
      "PercentPhaseFieldOfView": 100.0,
      "PercentSampling": 100.0,
      "PerformedProcedureStepStartTime": "200034.557000",
      "PhotometricInterpretation": "MONOCHROME2",
      "PixelBandwidth": 2365.0,
      "PixelRepresentation": 0,
      "PixelSpacing": [2.5, 2.5],
      "ProtocolName": "func_run-04_task-movie",
      "RepetitionTime": 1000.0,
      "Rows": 672,
      "SAR": 0.04538751434673,
      "SamplesPerPixel": 1,
      "ScanOptions": "FS",
      "ScanningSequence": "EP",
      "SequenceName": "*epfid2d1_96",
      "SequenceVariant": "SK",
      "SeriesDescription": "func_run-04_task-movie",
      "SeriesNumber": 29,
      "SeriesTime": "205013.201000",
      "SliceLocation": -72.542962095794,
      "SliceThickness": 2.5,
      "SmallestImagePixelValue": 0,
      "SoftwareVersions": "syngo MR E11",
      "SpacingBetweenSlices": 2.5000000098713,
      "SpecificCharacterSet": "ISO_IR 100",
      "StudyID": "1",
      "StudyTime": "200034.501000",
      "TransmitCoilName": "Body",
      "VariableFlipAngleFlag": "N",
      "WindowCenterWidthExplanation": "Algo1",
      "dBdt": 0.0},
    "slices": {}
  },
  "time": {
    "samples": {
      "AcquisitionNumber": [1, 2, 3, 4, 5, 6, 7, 8, 9, 10, 11, 12, 13, 14, 15, 16, 17, 18, 19, 20, 21, 22, 23, 24, 25, 26, 27, 28, 29, 30, 31, 32, 33, 34, 35, 36, 37, 38, 39, 40, 41, 42, 43, 44, 45, 46, 47, 48, 49, 50, 51, 52, 53, 54, 55, 56, 57, 58, 59, 60, 61, 62, 63, 64, 65, 66, 67, 68, 69, 70, 71, 72, 73, 74, 75, 76, 77, 78, 79, 80, 81, 82, 83, 84, 85, 86, 87, 88, 89, 90, 91, 92, 93, 94, 95, 96, 97, 98, 99, 100, 101, 102, 103, 104, 105, 106, 107, 108, 109, 110, 111, 112, 113, 114, 115, 116, 117, 118, 119, 120, 121, 122, 123, 124, 125, 126, 127, 128, 129, 130, 131, 132, 133, 134, 135, 136, 137, 138, 139, 140, 141, 142, 143, 144, 145, 146, 147, 148, 149, 150, 151, 152, 153, 154, 155, 156, 157, 158, 159, 160, 161, 162, 163, 164, 165, 166, 167, 168, 169, 170, 171, 172, 173, 174, 175, 176, 177, 178, 179, 180, 181, 182, 183, 184, 185, 186, 187, 188, 189, 190, 191, 192, 193, 194, 195, 196, 197, 198, 199, 200, 201, 202, 203, 204, 205, 206, 207, 208, 209, 210, 211, 212, 213, 214, 215, 216, 217, 218, 219, 220, 221, 222, 223, 224, 225, 226, 227, 228, 229, 230, 231, 232, 233, 234, 235, 236, 237, 238, 239, 240, 241, 242, 243, 244, 245, 246, 247, 248, 249, 250, 251, 252, 253, 254, 255, 256, 257, 258, 259, 260, 261, 262, 263, 264, 265, 266, 267, 268, 269, 270, 271, 272, 273, 274, 275, 276, 277, 278, 279, 280, 281, 282, 283, 284, 285, 286, 287, 288, 289, 290, 291, 292, 293, 294, 295, 296, 297, 298, 299, 300, 301, 302, 303, 304, 305, 306, 307, 308, 309, 310, 311, 312, 313, 314, 315, 316, 317, 318, 319, 320, 321, 322, 323, 324, 325, 326, 327, 328, 329, 330, 331, 332, 333, 334, 335, 336, 337, 338, 339, 340, 341, 342, 343, 344, 345, 346, 347, 348, 349, 350, 351, 352, 353, 354, 355, 356, 357, 358, 359, 360, 361, 362, 363, 364, 365, 366, 367, 368, 369, 370, 371, 372, 373, 374, 375, 376, 377, 378, 379, 380, 381, 382, 383, 384, 385, 386, 387, 388, 389, 390, 391, 392, 393, 394, 395, 396, 397, 398, 399, 400, 401, 402, 403, 404, 405, 406, 407, 408, 409, 410, 411, 412, 413, 414, 415, 416, 417, 418, 419, 420, 421, 422, 423, 424, 425, 426, 427, 428, 429, 430, 431, 432, 433, 434, 435, 436, 437, 438, 439, 440, 441, 442, 443, 444, 445, 446, 447, 448, 449, 450, 451, 452, 453, 454, 455, 456, 457, 458, 459, 460, 461, 462, 463, 464, 465, 466, 467, 468, 469, 470, 471, 472, 473, 474, 475, 476, 477, 478, 479, 480, 481, 482, 483, 484, 485, 486, 487, 488, 489, 490, 491, 492, 493, 494, 495, 496, 497, 498, 499, 500, 501, 502, 503, 504, 505, 506, 507, 508, 509, 510, 511, 512, 513, 514, 515, 516, 517, 518, 519, 520, 521, 522, 523, 524, 525, 526, 527, 528, 529, 530, 531, 532, 533, 534, 535, 536, 537, 538, 539, 540, 541, 542, 543, 544, 545, 546, 547, 548, 549, 550, 551, 552, 553, 554, 555, 556, 557, 558, 559, 560, 561, 562, 563, 564, 565, 566, 567, 568, 569, 570, 571, 572, 573, 574, 575, 576, 577, 578, 579, 580, 581, 582, 583, 584, 585, 586, 587, 588, 589, 590, 591, 592, 593, 594, 595, 596, 597, 598, 599, 600, 601, 602, 603, 604, 605, 606, 607, 608, 609, 610, 611, 612, 613, 614, 615, 616, 617, 618],
      "AcquisitionTime": ["205012.050000", "205013.050000", "205014.050000", "205015.050000", "205016.050000", "205017.050000", "205018.050000", "205019.050000", "205020.050000", "205021.050000", "205022.050000", "205023.050000", "205024.050000", "205025.050000", "205026.050000", "205027.050000", "205028.050000", "205029.050000", "205030.050000", "205031.050000", "205032.050000", "205033.050000", "205034.050000", "205035.050000", "205036.050000", "205037.050000", "205038.050000", "205039.050000", "205040.050000", "205041.050000", "205042.050000", "205043.050000", "205044.050000", "205045.050000", "205046.050000", "205047.050000", "205048.050000", "205049.050000", "205050.050000", "205051.050000", "205052.050000", "205053.050000", "205054.050000", "205055.050000", "205056.050000", "205057.050000", "205058.050000", "205059.050000", "205100.050000", "205101.050000", "205102.050000", "205103.050000", "205104.050000", "205105.050000", "205106.050000", "205107.050000", "205108.050000", "205109.050000", "205110.050000", "205111.050000", "205112.050000", "205113.050000", "205114.050000", "205115.050000", "205116.050000", "205117.050000", "205118.050000", "205119.050000", "205120.050000", "205121.050000", "205122.050000", "205123.050000", "205124.050000", "205125.050000", "205126.050000", "205127.050000", "205128.050000", "205129.050000", "205130.050000", "205131.050000", "205132.050000", "205133.050000", "205134.050000", "205135.050000", "205136.050000", "205137.050000", "205138.050000", "205139.050000", "205140.050000", "205141.050000", "205142.050000", "205143.050000", "205144.050000", "205145.050000", "205146.050000", "205147.050000", "205148.050000", "205149.050000", "205150.050000", "205151.050000", "205152.050000", "205153.050000", "205154.050000", "205155.050000", "205156.050000", "205157.050000", "205158.050000", "205159.050000", "205200.050000", "205201.050000", "205202.050000", "205203.050000", "205204.050000", "205205.050000", "205206.050000", "205207.050000", "205208.050000", "205209.050000", "205210.050000", "205211.050000", "205212.050000", "205213.050000", "205214.050000", "205215.050000", "205216.050000", "205217.050000", "205218.050000", "205219.050000", "205220.050000", "205221.050000", "205222.050000", "205223.050000", "205224.050000", "205225.050000", "205226.050000", "205227.050000", "205228.050000", "205229.050000", "205230.050000", "205231.050000", "205232.050000", "205233.050000", "205234.050000", "205235.050000", "205236.050000", "205237.050000", "205238.050000", "205239.050000", "205240.050000", "205241.050000", "205242.050000", "205243.050000", "205244.050000", "205245.050000", "205246.050000", "205247.050000", "205248.050000", "205249.050000", "205250.050000", "205251.050000", "205252.050000", "205253.050000", "205254.050000", "205255.050000", "205256.050000", "205257.050000", "205258.050000", "205259.050000", "205300.050000", "205301.050000", "205302.050000", "205303.050000", "205304.050000", "205305.050000", "205306.050000", "205307.050000", "205308.050000", "205309.050000", "205310.050000", "205311.050000", "205312.050000", "205313.050000", "205314.050000", "205315.050000", "205316.050000", "205317.050000", "205318.050000", "205319.050000", "205320.050000", "205321.050000", "205322.050000", "205323.050000", "205324.050000", "205325.050000", "205326.050000", "205327.050000", "205328.050000", "205329.050000", "205330.050000", "205331.050000", "205332.050000", "205333.050000", "205334.050000", "205335.050000", "205336.050000", "205337.050000", "205338.050000", "205339.050000", "205340.050000", "205341.050000", "205342.050000", "205343.050000", "205344.050000", "205345.050000", "205346.050000", "205347.050000", "205348.050000", "205349.050000", "205350.050000", "205351.050000", "205352.050000", "205353.050000", "205354.050000", "205355.050000", "205356.050000", "205357.050000", "205358.050000", "205359.050000", "205400.050000", "205401.050000", "205402.050000", "205403.050000", "205404.050000", "205405.050000", "205406.050000", "205407.050000", "205408.050000", "205409.050000", "205410.050000", "205411.050000", "205412.050000", "205413.050000", "205414.050000", "205415.050000", "205416.050000", "205417.050000", "205418.050000", "205419.050000", "205420.050000", "205421.050000", "205422.050000", "205423.050000", "205424.050000", "205425.050000", "205426.050000", "205427.050000", "205428.050000", "205429.050000", "205430.050000", "205431.050000", "205432.050000", "205433.050000", "205434.050000", "205435.050000", "205436.050000", "205437.050000", "205438.050000", "205439.050000", "205440.050000", "205441.050000", "205442.050000", "205443.050000", "205444.050000", "205445.050000", "205446.050000", "205447.050000", "205448.050000", "205449.050000", "205450.050000", "205451.050000", "205452.050000", "205453.050000", "205454.050000", "205455.050000", "205456.050000", "205457.050000", "205458.050000", "205459.050000", "205500.050000", "205501.050000", "205502.050000", "205503.050000", "205504.050000", "205505.050000", "205506.050000", "205507.050000", "205508.050000", "205509.050000", "205510.050000", "205511.050000", "205512.050000", "205513.050000", "205514.050000", "205515.050000", "205516.050000", "205517.050000", "205518.050000", "205519.050000", "205520.050000", "205521.050000", "205522.050000", "205523.050000", "205524.050000", "205525.050000", "205526.050000", "205527.050000", "205528.050000", "205529.050000", "205530.050000", "205531.050000", "205532.050000", "205533.050000", "205534.050000", "205535.050000", "205536.050000", "205537.050000", "205538.050000", "205539.050000", "205540.050000", "205541.050000", "205542.050000", "205543.050000", "205544.050000", "205545.050000", "205546.050000", "205547.050000", "205548.050000", "205549.050000", "205550.050000", "205551.050000", "205552.050000", "205553.050000", "205554.050000", "205555.050000", "205556.050000", "205557.050000", "205558.050000", "205559.050000", "205600.050000", "205601.050000", "205602.050000", "205603.050000", "205604.050000", "205605.050000", "205606.050000", "205607.050000", "205608.050000", "205609.050000", "205610.050000", "205611.050000", "205612.050000", "205613.050000", "205614.050000", "205615.050000", "205616.050000", "205617.050000", "205618.050000", "205619.050000", "205620.050000", "205621.050000", "205622.050000", "205623.050000", "205624.050000", "205625.050000", "205626.050000", "205627.050000", "205628.050000", "205629.050000", "205630.050000", "205631.050000", "205632.050000", "205633.050000", "205634.050000", "205635.050000", "205636.050000", "205637.050000", "205638.050000", "205639.050000", "205640.050000", "205641.050000", "205642.050000", "205643.050000", "205644.050000", "205645.050000", "205646.050000", "205647.050000", "205648.050000", "205649.050000", "205650.050000", "205651.050000", "205652.050000", "205653.050000", "205654.050000", "205655.050000", "205656.050000", "205657.050000", "205658.050000", "205659.050000", "205700.050000", "205701.050000", "205702.050000", "205703.050000", "205704.050000", "205705.050000", "205706.050000", "205707.050000", "205708.050000", "205709.050000", "205710.050000", "205711.050000", "205712.050000", "205713.050000", "205714.050000", "205715.050000", "205716.050000", "205717.050000", "205718.050000", "205719.050000", "205720.050000", "205721.050000", "205722.050000", "205723.050000", "205724.050000", "205725.050000", "205726.050000", "205727.050000", "205728.050000", "205729.050000", "205730.050000", "205731.050000", "205732.050000", "205733.050000", "205734.050000", "205735.050000", "205736.050000", "205737.050000", "205738.050000", "205739.050000", "205740.050000", "205741.050000", "205742.050000", "205743.050000", "205744.050000", "205745.050000", "205746.050000", "205747.050000", "205748.050000", "205749.050000", "205750.050000", "205751.050000", "205752.050000", "205753.050000", "205754.050000", "205755.050000", "205756.050000", "205757.050000", "205758.050000", "205759.050000", "205800.050000", "205801.050000", "205802.050000", "205803.050000", "205804.050000", "205805.050000", "205806.050000", "205807.050000", "205808.050000", "205809.050000", "205810.050000", "205811.050000", "205812.050000", "205813.050000", "205814.050000", "205815.050000", "205816.050000", "205817.050000", "205818.050000", "205819.050000", "205820.050000", "205821.050000", "205822.050000", "205823.050000", "205824.050000", "205825.050000", "205826.050000", "205827.050000", "205828.050000", "205829.050000", "205830.050000", "205831.050000", "205832.050000", "205833.050000", "205834.050000", "205835.050000", "205836.050000", "205837.050000", "205838.050000", "205839.050000", "205840.050000", "205841.050000", "205842.050000", "205843.050000", "205844.050000", "205845.050000", "205846.050000", "205847.050000", "205848.050000", "205849.050000", "205850.050000", "205851.050000", "205852.050000", "205853.050000", "205854.050000", "205855.050000", "205856.050000", "205857.050000", "205858.050000", "205859.050000", "205900.050000", "205901.050000", "205902.050000", "205903.050000", "205904.050000", "205905.050000", "205906.050000", "205907.050000", "205908.050000", "205909.050000", "205910.050000", "205911.050000", "205912.050000", "205913.050000", "205914.050000", "205915.050000", "205916.050000", "205917.050000", "205918.050000", "205919.050000", "205920.050000", "205921.050000", "205922.050000", "205923.050000", "205924.050000", "205925.050000", "205926.050000", "205927.050000", "205928.050000", "205929.050000", "205930.050000", "205931.050000", "205932.050000", "205933.050000", "205934.050000", "205935.050000", "205936.050000", "205937.050000", "205938.050000", "205939.050000", "205940.050000", "205941.050000", "205942.050000", "205943.050000", "205944.050000", "205945.050000", "205946.050000", "205947.050000", "205948.050000", "205949.050000", "205950.050000", "205951.050000", "205952.050000", "205953.050000", "205954.050000", "205955.050000", "205956.050000", "205957.050000", "205958.050000", "205959.050000", "210000.050000", "210001.050000", "210002.050000", "210003.050000", "210004.050000", "210005.050000", "210006.050000", "210007.050000", "210008.050000", "210009.050000", "210010.050000", "210011.050000", "210012.050000", "210013.050000", "210014.050000", "210015.050000", "210016.050000", "210017.050000", "210018.050000", "210019.050000", "210020.050000", "210021.050000", "210022.050000", "210023.050000", "210024.050000", "210025.050000", "210026.050000", "210027.050000", "210028.050000", "210029.050000"],
      "ContentTime": ["205013.205000", "205014.050000", "205015.056000", "205016.083000", "205017.063000", "205018.055000", "205019.096000", "205020.083000", "205021.080000", "205022.103000", "205023.062000", "205024.102000", "205025.062000", "205026.066000", "205027.065000", "205028.068000", "205029.055000", "205030.085000", "205031.045000", "205032.051000", "205033.062000", "205034.070000", "205035.070000", "205036.054000", "205037.081000", "205038.085000", "205039.080000", "205040.080000", "205041.104000", "205042.064000", "205043.051000", "205044.107000", "205045.097000", "205046.076000", "205047.043000", "205048.065000", "205049.131000", "205050.089000", "205051.101000", "205052.075000", "205053.078000", "205054.077000", "205055.086000", "205056.072000", "205057.075000", "205058.081000", "205059.074000", "205100.072000", "205101.072000", "205102.068000", "205103.061000", "205104.080000", "205105.055000", "205106.082000", "205107.060000", "205108.087000", "205109.071000", "205110.063000", "205111.099000", "205112.106000", "205113.064000", "205114.069000", "205115.109000", "205116.058000", "205117.069000", "205118.068000", "205119.057000", "205120.052000", "205121.053000", "205122.057000", "205123.046000", "205124.056000", "205125.055000", "205126.050000", "205127.066000", "205128.064000", "205129.070000", "205130.049000", "205131.095000", "205132.051000", "205133.095000", "205134.074000", "205135.066000", "205136.061000", "205137.012000", "205138.059000", "205139.043000", "205140.053000", "205141.080000", "205142.030000", "205143.055000", "205144.071000", "205145.057000", "205146.059000", "205147.061000", "205148.068000", "205149.064000", "205150.075000", "205151.050000", "205152.044000", "205153.063000", "205154.074000", "205155.072000", "205156.061000", "205157.072000", "205158.076000", "205159.044000", "205200.066000", "205201.076000", "205202.070000", "205203.084000", "205204.066000", "205205.058000", "205206.073000", "205207.067000", "205208.085000", "205209.091000", "205210.069000", "205211.075000", "205212.088000", "205213.066000", "205214.083000", "205215.092000", "205216.104000", "205217.074000", "205218.056000", "205219.089000", "205220.062000", "205221.080000", "205222.059000", "205223.063000", "205224.072000", "205225.094000", "205226.102000", "205227.087000", "205228.057000", "205229.061000", "205230.071000", "205231.072000", "205232.075000", "205233.072000", "205234.076000", "205235.058000", "205236.133000", "205237.076000", "205238.067000", "205239.062000", "205240.083000", "205241.069000", "205242.063000", "205243.050000", "205244.057000", "205245.075000", "205246.041000", "205247.051000", "205248.063000", "205249.070000", "205250.067000", "205251.086000", "205252.063000", "205253.074000", "205254.070000", "205255.057000", "205256.076000", "205257.076000", "205258.084000", "205259.074000", "205300.085000", "205301.075000", "205302.091000", "205303.080000", "205304.051000", "205305.062000", "205306.081000", "205307.052000", "205308.077000", "205309.052000", "205310.086000", "205311.086000", "205312.075000", "205313.084000", "205314.074000", "205315.077000", "205316.069000", "205317.066000", "205318.048000", "205319.068000", "205320.084000", "205321.105000", "205322.063000", "205323.079000", "205324.132000", "205325.076000", "205326.064000", "205327.083000", "205328.066000", "205329.068000", "205330.071000", "205331.082000", "205332.069000", "205333.073000", "205334.059000", "205335.063000", "205336.068000", "205337.071000", "205338.075000", "205339.073000", "205340.099000", "205341.074000", "205342.051000", "205343.111000", "205344.074000", "205345.084000", "205346.083000", "205347.097000", "205348.098000", "205349.087000", "205350.039000", "205351.065000", "205352.059000", "205353.069000", "205354.101000", "205355.064000", "205356.087000", "205357.072000", "205358.074000", "205359.053000", "205400.079000", "205401.063000", "205402.061000", "205403.079000", "205404.101000", "205405.068000", "205406.053000", "205407.065000", "205408.042000", "205409.068000", "205410.044000", "205411.071000", "205412.066000", "205413.078000", "205414.070000", "205415.047000", "205416.067000", "205417.043000", "205418.063000", "205419.064000", "205420.066000", "205421.075000", "205422.057000", "205423.036000", "205424.081000", "205425.077000", "205426.042000", "205427.083000", "205428.091000", "205429.046000", "205430.067000", "205431.065000", "205432.077000", "205433.102000", "205434.151000", "205435.013000", "205436.076000", "205437.099000", "205438.067000", "205439.070000", "205440.092000", "205441.101000", "205442.059000", "205443.064000", "205444.089000", "205445.070000", "205446.065000", "205447.084000", "205448.057000", "205449.067000", "205450.064000", "205451.090000", "205452.073000", "205453.075000", "205454.065000", "205455.036000", "205456.084000", "205457.057000", "205458.116000", "205459.063000", "205500.070000", "205501.058000", "205502.072000", "205503.122000", "205504.088000", "205505.081000", "205506.074000", "205507.085000", "205508.081000", "205509.071000", "205510.157000", "205511.069000", "205512.092000", "205513.076000", "205514.065000", "205515.043000", "205516.040000", "205517.060000", "205518.074000", "205519.042000", "205520.092000", "205521.064000", "205522.064000", "205523.074000", "205524.088000", "205525.121000", "205526.080000", "205527.126000", "205528.085000", "205529.058000", "205530.059000", "205531.063000", "205532.098000", "205533.092000", "205534.081000", "205535.083000", "205536.062000", "205537.060000", "205538.076000", "205539.071000", "205540.105000", "205541.104000", "205542.133000", "205543.098000", "205544.065000", "205545.073000", "205546.093000", "205547.072000", "205548.060000", "205549.077000", "205550.138000", "205551.071000", "205552.080000", "205553.081000", "205554.061000", "205555.105000", "205556.111000", "205557.074000", "205558.067000", "205559.085000", "205600.067000", "205601.089000", "205602.062000", "205603.083000", "205604.073000", "205605.084000", "205606.053000", "205607.103000", "205608.156000", "205609.100000", "205610.065000", "205611.096000", "205612.089000", "205613.059000", "205614.067000", "205615.063000", "205616.067000", "205617.066000", "205618.074000", "205619.137000", "205620.054000", "205621.077000", "205622.074000", "205623.070000", "205624.073000", "205625.087000", "205626.078000", "205627.083000", "205628.060000", "205629.073000", "205630.099000", "205631.090000", "205632.048000", "205633.048000", "205634.022000", "205635.078000", "205636.058000", "205637.062000", "205638.055000", "205639.148000", "205640.079000", "205641.106000", "205642.069000", "205643.100000", "205644.054000", "205645.065000", "205646.089000", "205647.126000", "205648.072000", "205649.109000", "205650.037000", "205651.046000", "205652.087000", "205653.072000", "205654.056000", "205655.069000", "205656.073000", "205657.083000", "205658.081000", "205659.085000", "205700.068000", "205701.093000", "205702.057000", "205703.081000", "205704.107000", "205705.055000", "205706.053000", "205707.070000", "205708.061000", "205709.064000", "205710.063000", "205711.076000", "205712.074000", "205713.060000", "205714.062000", "205715.069000", "205716.078000", "205717.061000", "205718.069000", "205719.065000", "205720.082000", "205721.084000", "205722.081000", "205723.056000", "205724.077000", "205725.043000", "205726.058000", "205727.065000", "205728.049000", "205729.055000", "205730.069000", "205731.072000", "205732.059000", "205733.053000", "205734.069000", "205735.071000", "205736.066000", "205737.073000", "205738.037000", "205739.110000", "205740.040000", "205741.056000", "205742.052000", "205743.084000", "205744.077000", "205745.063000", "205746.072000", "205747.047000", "205748.034000", "205749.050000", "205750.082000", "205751.074000", "205752.104000", "205753.057000", "205754.094000", "205755.077000", "205756.083000", "205757.079000", "205758.089000", "205759.078000", "205800.042000", "205801.063000", "205802.056000", "205803.060000", "205804.057000", "205805.047000", "205806.063000", "205807.051000", "205808.074000", "205809.057000", "205810.066000", "205811.046000", "205812.034000", "205813.071000", "205814.066000", "205815.092000", "205816.049000", "205817.078000", "205818.073000", "205819.076000", "205820.108000", "205821.060000", "205822.049000", "205823.053000", "205824.063000", "205825.092000", "205826.052000", "205827.048000", "205828.058000", "205829.062000", "205830.062000", "205831.081000", "205832.078000", "205833.037000", "205834.081000", "205835.063000", "205836.058000", "205837.084000", "205838.059000", "205839.075000", "205840.065000", "205841.052000", "205842.057000", "205843.037000", "205844.057000", "205845.074000", "205846.071000", "205847.019000", "205848.090000", "205849.055000", "205850.061000", "205851.069000", "205852.087000", "205853.077000", "205854.065000", "205855.074000", "205856.062000", "205857.059000", "205858.057000", "205859.075000", "205900.049000", "205901.060000", "205902.051000", "205903.057000", "205904.068000", "205905.067000", "205906.067000", "205907.093000", "205908.086000", "205909.060000", "205910.044000", "205911.065000", "205912.071000", "205913.054000", "205914.062000", "205915.084000", "205916.060000", "205917.113000", "205918.068000", "205919.075000", "205920.067000", "205921.064000", "205922.072000", "205923.074000", "205924.048000", "205925.052000", "205926.044000", "205927.053000", "205928.074000", "205929.087000", "205930.093000", "205931.087000", "205932.046000", "205933.054000", "205934.086000", "205935.060000", "205936.056000", "205937.051000", "205938.051000", "205939.093000", "205940.049000", "205941.055000", "205942.052000", "205943.056000", "205944.059000", "205945.042000", "205946.082000", "205947.060000", "205948.038000", "205949.097000", "205950.053000", "205951.070000", "205952.056000", "205953.057000", "205954.061000", "205955.092000", "205956.046000", "205957.059000", "205958.070000", "205959.016000", "210000.061000", "210001.057000", "210002.067000", "210003.068000", "210004.032000", "210005.078000", "210006.056000", "210007.064000", "210008.058000", "210009.046000", "210010.064000", "210011.075000", "210012.078000", "210013.071000", "210014.038000", "210015.049000", "210016.064000", "210017.077000", "210018.092000", "210019.082000", "210020.067000", "210021.058000", "210022.070000", "210023.085000", "210024.057000", "210025.066000", "210026.055000", "210027.075000", "210028.045000", "210029.077000", "210030.117000"],
