{
  "AcquisitionMatrixPE": 96,
  "AcquisitionNumber": 1,
  "AcquisitionTime": "21:01:18.110000",
  "BandwidthPerPixelPhaseEncode": 18.939,
  "BaseResolution": 96,
  "BodyPartExamined": "BRAIN",
  "ConsistencyInfo": "N4_VE11C_LATEST_20160120",
  "ConversionSoftware": "dcm2niix",
  "ConversionSoftwareVersion": "v1.0.20190902",
  "DerivedVendorReportedEchoSpacing": 0.000550011,
  "DeviceSerialNumber": "66112",
  "DwellTime": 2.2e-06,
  "EchoTime": 0.033,
  "EchoTrainLength": 96,
  "EffectiveEchoSpacing": 0.000550011,
  "FlipAngle": 59,
  "ImageOrientationPatientDICOM": [0.999791, -0.0152239, 0.0136601, 0.0129135, 0.987727, 0.155654],
  "ImageType": [
    "ORIGINAL",
    "PRIMARY",
    "FMRI",
    "NONE",
    "ND",
    "NORM",
    "MOSAIC"
],
  "ImagingFrequency": 123.252,
  "InPlanePhaseEncodingDirectionDICOM": "COL",
  "InstitutionAddress": "Maynard_3_Hanover_NH_US_03755",
  "InstitutionName": "Dartmouth_College_-_PBS",
  "InstitutionalDepartmentName": "Department",
  "MRAcquisitionType": "2D",
  "MagneticFieldStrength": 3,
  "Manufacturer": "Siemens",
  "ManufacturersModelName": "Prisma",
  "Modality": "MR",
  "MultibandAccelerationFactor": 4,
  "PartialFourier": 1,
  "PatientPosition": "HFS",
  "PercentPhaseFOV": 100,
  "PhaseEncodingDirection": "j-",
  "PhaseEncodingSteps": 96,
  "PhaseResolution": 1,
  "PixelBandwidth": 2365,
  "ProcedureStepDescription": "Gobbini_Matteo_1037_budapest",
  "ProtocolName": "func_run-05_task-movie",
  "PulseSequenceDetails": "%SiemensSeq%_ep2d_bold",
  "ReceiveCoilActiveElements": "HEA;HEP",
  "ReceiveCoilName": "Head_32",
  "ReconMatrixPE": 96,
  "RefLinesPE": 12,
  "RepetitionTime": 1,
  "SAR": 0.0454424,
  "ScanOptions": "FS",
  "ScanningSequence": "EP",
  "SequenceName": "_epfid2d1_96",
  "SequenceVariant": "SK",
  "SeriesDescription": "func_run-05_task-movie",
  "SeriesNumber": 36,
  "ShimSetting": [4144, -7748, -7306, 633, -68, -148, -27, 66],
  "SliceThickness": 2.5,
  "SliceTiming": [0.735, 0, 0.49, 0.08, 0.57, 0.1625, 0.6525, 0.325, 0.815, 0.4075, 0.8975, 0.245, 0.735, 0, 0.49, 0.08, 0.57, 0.1625, 0.6525, 0.325, 0.815, 0.4075, 0.8975, 0.245, 0.735, 0, 0.49, 0.08, 0.57, 0.1625, 0.6525, 0.325, 0.815, 0.4075, 0.8975, 0.245, 0.735, 0, 0.49, 0.08, 0.57, 0.1625, 0.6525, 0.325, 0.815, 0.4075, 0.8975, 0.245],
  "SoftwareVersions": "syngo_MR_E11",
  "SpacingBetweenSlices": 2.5,
  "StationName": "AWP66112",
  "TaskName": "movie",
  "TotalReadoutTime": 0.0522511,
  "TxRefAmp": 228.607,
  "dcmmeta_affine": [
    [-2.499476909637451, 0.032283756881952286, 0.03965521231293678, 121.9203109741211],
    [0.03805972635746002, 2.46931791305542, 0.3886135518550873, -109.23731231689453],
    [0.03415016829967499, -0.3891359567642212, 2.4692928791046143, -58.2114372253418],
    [0.0, 0.0, 0.0, 1.0]
],
  "dcmmeta_reorient_transform": [
    [0.0, -1.0, 0.0, 95.0],
    [1.0, 0.0, 0.0, 0.0],
    [0.0, 0.0, 1.0, 0.0],
    [0.0, 0.0, 0.0, 1.0]
],
  "dcmmeta_shape": [96, 96, 48, 803],
  "dcmmeta_slice_dim": 2,
  "dcmmeta_version": 0.6,
  "global": {
    "const": {
      "AccessionNumber": "A001085",
      "AcquisitionMatrix": [96, 0, 0, 96],
      "AngioFlag": "N",
      "BitsAllocated": 16,
      "BitsStored": 12,
      "BodyPartExamined": "BRAIN",
      "Columns": 672,
      "EchoNumbers": 1,
      "EchoTime": 33.0,
      "EchoTrainLength": 96,
      "FlipAngle": 59.0,
      "HighBit": 11,
      "ImageOrientationPatient": [0.99979079598675, -0.0152238902243, 0.01366006685984, 0.0129135023148, 0.98772716691127, 0.15565437739878],
      "ImagePositionPatient": [-854.13436482288, -825.55024768686, -217.08575121923],
      "ImageType": [
        "ORIGINAL",
        "PRIMARY",
        "FMRI",
        "NONE",
        "ND",
        "NORM",
        "MOSAIC"
],
      "ImagedNucleus": "1H",
      "ImagingFrequency": 123.252337,
      "InPlanePhaseEncodingDirection": "COL",
      "MRAcquisitionType": "2D",
      "MagneticFieldStrength": 3.0,
      "Manufacturer": "SIEMENS",
      "ManufacturerModelName": "Prisma",
      "Modality": "MR",
      "NumberOfAverages": 1.0,
      "NumberOfPhaseEncodingSteps": 96,
      "PercentPhaseFieldOfView": 100.0,
      "PercentSampling": 100.0,
      "PerformedProcedureStepStartTime": "200034.557000",
      "PhotometricInterpretation": "MONOCHROME2",
      "PixelBandwidth": 2365.0,
      "PixelRepresentation": 0,
      "PixelSpacing": [2.5, 2.5],
      "ProtocolName": "func_run-05_task-movie",
      "RepetitionTime": 1000.0,
      "Rows": 672,
      "SAR": 0.04544240915841,
      "SamplesPerPixel": 1,
      "ScanOptions": "FS",
      "ScanningSequence": "EP",
      "SequenceName": "*epfid2d1_96",
      "SequenceVariant": "SK",
      "SeriesDescription": "func_run-05_task-movie",
      "SeriesNumber": 36,
      "SeriesTime": "210119.176000",
      "SliceLocation": -72.542962095794,
      "SliceThickness": 2.5,
      "SmallestImagePixelValue": 0,
      "SoftwareVersions": "syngo MR E11",
      "SpacingBetweenSlices": 2.5000000098713,
      "SpecificCharacterSet": "ISO_IR 100",
      "StudyID": "1",
      "StudyTime": "200034.501000",
      "TransmitCoilName": "Body",
      "VariableFlipAngleFlag": "N",
      "WindowCenterWidthExplanation": "Algo1",
      "dBdt": 0.0},
    "slices": {}
  },
  "time": {
    "samples": {
      "AcquisitionNumber": [1, 2, 3, 4, 5, 6, 7, 8, 9, 10, 11, 12, 13, 14, 15, 16, 17, 18, 19, 20, 21, 22, 23, 24, 25, 26, 27, 28, 29, 30, 31, 32, 33, 34, 35, 36, 37, 38, 39, 40, 41, 42, 43, 44, 45, 46, 47, 48, 49, 50, 51, 52, 53, 54, 55, 56, 57, 58, 59, 60, 61, 62, 63, 64, 65, 66, 67, 68, 69, 70, 71, 72, 73, 74, 75, 76, 77, 78, 79, 80, 81, 82, 83, 84, 85, 86, 87, 88, 89, 90, 91, 92, 93, 94, 95, 96, 97, 98, 99, 100, 101, 102, 103, 104, 105, 106, 107, 108, 109, 110, 111, 112, 113, 114, 115, 116, 117, 118, 119, 120, 121, 122, 123, 124, 125, 126, 127, 128, 129, 130, 131, 132, 133, 134, 135, 136, 137, 138, 139, 140, 141, 142, 143, 144, 145, 146, 147, 148, 149, 150, 151, 152, 153, 154, 155, 156, 157, 158, 159, 160, 161, 162, 163, 164, 165, 166, 167, 168, 169, 170, 171, 172, 173, 174, 175, 176, 177, 178, 179, 180, 181, 182, 183, 184, 185, 186, 187, 188, 189, 190, 191, 192, 193, 194, 195, 196, 197, 198, 199, 200, 201, 202, 203, 204, 205, 206, 207, 208, 209, 210, 211, 212, 213, 214, 215, 216, 217, 218, 219, 220, 221, 222, 223, 224, 225, 226, 227, 228, 229, 230, 231, 232, 233, 234, 235, 236, 237, 238, 239, 240, 241, 242, 243, 244, 245, 246, 247, 248, 249, 250, 251, 252, 253, 254, 255, 256, 257, 258, 259, 260, 261, 262, 263, 264, 265, 266, 267, 268, 269, 270, 271, 272, 273, 274, 275, 276, 277, 278, 279, 280, 281, 282, 283, 284, 285, 286, 287, 288, 289, 290, 291, 292, 293, 294, 295, 296, 297, 298, 299, 300, 301, 302, 303, 304, 305, 306, 307, 308, 309, 310, 311, 312, 313, 314, 315, 316, 317, 318, 319, 320, 321, 322, 323, 324, 325, 326, 327, 328, 329, 330, 331, 332, 333, 334, 335, 336, 337, 338, 339, 340, 341, 342, 343, 344, 345, 346, 347, 348, 349, 350, 351, 352, 353, 354, 355, 356, 357, 358, 359, 360, 361, 362, 363, 364, 365, 366, 367, 368, 369, 370, 371, 372, 373, 374, 375, 376, 377, 378, 379, 380, 381, 382, 383, 384, 385, 386, 387, 388, 389, 390, 391, 392, 393, 394, 395, 396, 397, 398, 399, 400, 401, 402, 403, 404, 405, 406, 407, 408, 409, 410, 411, 412, 413, 414, 415, 416, 417, 418, 419, 420, 421, 422, 423, 424, 425, 426, 427, 428, 429, 430, 431, 432, 433, 434, 435, 436, 437, 438, 439, 440, 441, 442, 443, 444, 445, 446, 447, 448, 449, 450, 451, 452, 453, 454, 455, 456, 457, 458, 459, 460, 461, 462, 463, 464, 465, 466, 467, 468, 469, 470, 471, 472, 473, 474, 475, 476, 477, 478, 479, 480, 481, 482, 483, 484, 485, 486, 487, 488, 489, 490, 491, 492, 493, 494, 495, 496, 497, 498, 499, 500, 501, 502, 503, 504, 505, 506, 507, 508, 509, 510, 511, 512, 513, 514, 515, 516, 517, 518, 519, 520, 521, 522, 523, 524, 525, 526, 527, 528, 529, 530, 531, 532, 533, 534, 535, 536, 537, 538, 539, 540, 541, 542, 543, 544, 545, 546, 547, 548, 549, 550, 551, 552, 553, 554, 555, 556, 557, 558, 559, 560, 561, 562, 563, 564, 565, 566, 567, 568, 569, 570, 571, 572, 573, 574, 575, 576, 577, 578, 579, 580, 581, 582, 583, 584, 585, 586, 587, 588, 589, 590, 591, 592, 593, 594, 595, 596, 597, 598, 599, 600, 601, 602, 603, 604, 605, 606, 607, 608, 609, 610, 611, 612, 613, 614, 615, 616, 617, 618, 619, 620, 621, 622, 623, 624, 625, 626, 627, 628, 629, 630, 631, 632, 633, 634, 635, 636, 637, 638, 639, 640, 641, 642, 643, 644, 645, 646, 647, 648, 649, 650, 651, 652, 653, 654, 655, 656, 657, 658, 659, 660, 661, 662, 663, 664, 665, 666, 667, 668, 669, 670, 671, 672, 673, 674, 675, 676, 677, 678, 679, 680, 681, 682, 683, 684, 685, 686, 687, 688, 689, 690, 691, 692, 693, 694, 695, 696, 697, 698, 699, 700, 701, 702, 703, 704, 705, 706, 707, 708, 709, 710, 711, 712, 713, 714, 715, 716, 717, 718, 719, 720, 721, 722, 723, 724, 725, 726, 727, 728, 729, 730, 731, 732, 733, 734, 735, 736, 737, 738, 739, 740, 741, 742, 743, 744, 745, 746, 747, 748, 749, 750, 751, 752, 753, 754, 755, 756, 757, 758, 759, 760, 761, 762, 763, 764, 765, 766, 767, 768, 769, 770, 771, 772, 773, 774, 775, 776, 777, 778, 779, 780, 781, 782, 783, 784, 785, 786, 787, 788, 789, 790, 791, 792, 793, 794, 795, 796, 797, 798, 799, 800, 801, 802, 803],
      "AcquisitionTime": ["210118.110000", "210119.110000", "210120.110000", "210121.110000", "210122.110000", "210123.110000", "210124.110000", "210125.110000", "210126.110000", "210127.110000", "210128.110000", "210129.110000", "210130.110000", "210131.110000", "210132.110000", "210133.110000", "210134.110000", "210135.110000", "210136.110000", "210137.110000", "210138.110000", "210139.110000", "210140.110000", "210141.110000", "210142.110000", "210143.110000", "210144.110000", "210145.110000", "210146.110000", "210147.110000", "210148.110000", "210149.110000", "210150.110000", "210151.110000", "210152.110000", "210153.110000", "210154.110000", "210155.110000", "210156.110000", "210157.110000", "210158.110000", "210159.110000", "210200.110000", "210201.110000", "210202.110000", "210203.110000", "210204.110000", "210205.110000", "210206.110000", "210207.110000", "210208.110000", "210209.110000", "210210.110000", "210211.110000", "210212.110000", "210213.110000", "210214.110000", "210215.110000", "210216.110000", "210217.110000", "210218.110000", "210219.110000", "210220.110000", "210221.110000", "210222.110000", "210223.110000", "210224.110000", "210225.110000", "210226.110000", "210227.110000", "210228.110000", "210229.110000", "210230.110000", "210231.110000", "210232.110000", "210233.110000", "210234.110000", "210235.110000", "210236.110000", "210237.110000", "210238.110000", "210239.110000", "210240.110000", "210241.110000", "210242.110000", "210243.110000", "210244.110000", "210245.110000", "210246.110000", "210247.110000", "210248.110000", "210249.110000", "210250.110000", "210251.110000", "210252.110000", "210253.110000", "210254.110000", "210255.110000", "210256.110000", "210257.110000", "210258.110000", "210259.110000", "210300.110000", "210301.110000", "210302.110000", "210303.110000", "210304.110000", "210305.110000", "210306.110000", "210307.110000", "210308.110000", "210309.110000", "210310.110000", "210311.110000", "210312.110000", "210313.110000", "210314.110000", "210315.110000", "210316.110000", "210317.110000", "210318.110000", "210319.110000", "210320.110000", "210321.110000", "210322.110000", "210323.110000", "210324.110000", "210325.110000", "210326.110000", "210327.110000", "210328.110000", "210329.110000", "210330.110000", "210331.110000", "210332.110000", "210333.110000", "210334.110000", "210335.110000", "210336.110000", "210337.110000", "210338.110000", "210339.110000", "210340.110000", "210341.110000", "210342.110000", "210343.110000", "210344.110000", "210345.110000", "210346.110000", "210347.110000", "210348.110000", "210349.110000", "210350.110000", "210351.110000", "210352.110000", "210353.110000", "210354.110000", "210355.110000", "210356.110000", "210357.110000", "210358.110000", "210359.110000", "210400.110000", "210401.110000", "210402.110000", "210403.110000", "210404.110000", "210405.110000", "210406.110000", "210407.110000", "210408.110000", "210409.110000", "210410.110000", "210411.110000", "210412.110000", "210413.110000", "210414.110000", "210415.110000", "210416.110000", "210417.110000", "210418.110000", "210419.110000", "210420.110000", "210421.110000", "210422.110000", "210423.110000", "210424.110000", "210425.110000", "210426.110000", "210427.110000", "210428.110000", "210429.110000", "210430.110000", "210431.110000", "210432.110000", "210433.110000", "210434.110000", "210435.110000", "210436.110000", "210437.110000", "210438.110000", "210439.110000", "210440.110000", "210441.110000", "210442.110000", "210443.110000", "210444.110000", "210445.110000", "210446.110000", "210447.110000", "210448.110000", "210449.110000", "210450.110000", "210451.110000", "210452.110000", "210453.110000", "210454.110000", "210455.110000", "210456.110000", "210457.110000", "210458.110000", "210459.110000", "210500.110000", "210501.110000", "210502.110000", "210503.110000", "210504.110000", "210505.110000", "210506.110000", "210507.110000", "210508.110000", "210509.110000", "210510.110000", "210511.110000", "210512.110000", "210513.110000", "210514.110000", "210515.110000", "210516.110000", "210517.110000", "210518.110000", "210519.110000", "210520.110000", "210521.110000", "210522.110000", "210523.110000", "210524.110000", "210525.110000", "210526.110000", "210527.110000", "210528.110000", "210529.110000", "210530.110000", "210531.110000", "210532.110000", "210533.110000", "210534.110000", "210535.110000", "210536.110000", "210537.110000", "210538.110000", "210539.110000", "210540.110000", "210541.110000", "210542.110000", "210543.110000", "210544.110000", "210545.110000", "210546.110000", "210547.110000", "210548.110000", "210549.110000", "210550.110000", "210551.110000", "210552.110000", "210553.110000", "210554.110000", "210555.110000", "210556.110000", "210557.110000", "210558.110000", "210559.110000", "210600.110000", "210601.110000", "210602.110000", "210603.110000", "210604.110000", "210605.110000", "210606.110000", "210607.110000", "210608.110000", "210609.110000", "210610.110000", "210611.110000", "210612.110000", "210613.110000", "210614.110000", "210615.110000", "210616.110000", "210617.110000", "210618.110000", "210619.110000", "210620.110000", "210621.110000", "210622.110000", "210623.110000", "210624.110000", "210625.110000", "210626.110000", "210627.110000", "210628.110000", "210629.110000", "210630.110000", "210631.110000", "210632.110000", "210633.110000", "210634.110000", "210635.110000", "210636.110000", "210637.110000", "210638.110000", "210639.110000", "210640.110000", "210641.110000", "210642.110000", "210643.110000", "210644.110000", "210645.110000", "210646.110000", "210647.110000", "210648.110000", "210649.110000", "210650.110000", "210651.110000", "210652.110000", "210653.110000", "210654.110000", "210655.110000", "210656.110000", "210657.110000", "210658.110000", "210659.110000", "210700.110000", "210701.110000", "210702.110000", "210703.110000", "210704.110000", "210705.110000", "210706.110000", "210707.110000", "210708.110000", "210709.110000", "210710.110000", "210711.110000", "210712.110000", "210713.110000", "210714.110000", "210715.110000", "210716.110000", "210717.110000", "210718.110000", "210719.110000", "210720.110000", "210721.110000", "210722.110000", "210723.110000", "210724.110000", "210725.110000", "210726.110000", "210727.110000", "210728.110000", "210729.110000", "210730.110000", "210731.110000", "210732.110000", "210733.110000", "210734.110000", "210735.110000", "210736.110000", "210737.110000", "210738.110000", "210739.110000", "210740.110000", "210741.110000", "210742.110000", "210743.110000", "210744.110000", "210745.110000", "210746.110000", "210747.110000", "210748.110000", "210749.110000", "210750.110000", "210751.110000", "210752.110000", "210753.110000", "210754.110000", "210755.110000", "210756.110000", "210757.110000", "210758.110000", "210759.110000", "210800.110000", "210801.110000", "210802.110000", "210803.110000", "210804.110000", "210805.110000", "210806.110000", "210807.110000", "210808.110000", "210809.110000", "210810.110000", "210811.110000", "210812.110000", "210813.110000", "210814.110000", "210815.110000", "210816.110000", "210817.110000", "210818.110000", "210819.110000", "210820.110000", "210821.110000", "210822.110000", "210823.110000", "210824.110000", "210825.110000", "210826.110000", "210827.110000", "210828.110000", "210829.110000", "210830.110000", "210831.110000", "210832.110000", "210833.110000", "210834.110000", "210835.110000", "210836.110000", "210837.110000", "210838.110000", "210839.110000", "210840.110000", "210841.110000", "210842.110000", "210843.110000", "210844.110000", "210845.110000", "210846.110000", "210847.110000", "210848.110000", "210849.110000", "210850.110000", "210851.110000", "210852.110000", "210853.110000", "210854.110000", "210855.110000", "210856.110000", "210857.110000", "210858.110000", "210859.110000", "210900.110000", "210901.110000", "210902.110000", "210903.110000", "210904.110000", "210905.110000", "210906.110000", "210907.110000", "210908.110000", "210909.110000", "210910.110000", "210911.110000", "210912.110000", "210913.110000", "210914.110000", "210915.110000", "210916.110000", "210917.110000", "210918.110000", "210919.110000", "210920.110000", "210921.110000", "210922.110000", "210923.110000", "210924.110000", "210925.110000", "210926.110000", "210927.110000", "210928.110000", "210929.110000", "210930.110000", "210931.110000", "210932.110000", "210933.110000", "210934.110000", "210935.110000", "210936.110000", "210937.110000", "210938.110000", "210939.110000", "210940.110000", "210941.110000", "210942.110000", "210943.110000", "210944.110000", "210945.110000", "210946.110000", "210947.110000", "210948.110000", "210949.110000", "210950.110000", "210951.110000", "210952.110000", "210953.110000", "210954.110000", "210955.110000", "210956.110000", "210957.110000", "210958.110000", "210959.110000", "211000.110000", "211001.110000", "211002.110000", "211003.110000", "211004.110000", "211005.110000", "211006.110000", "211007.110000", "211008.110000", "211009.110000", "211010.110000", "211011.110000", "211012.110000", "211013.110000", "211014.110000", "211015.110000", "211016.110000", "211017.110000", "211018.110000", "211019.110000", "211020.110000", "211021.110000", "211022.110000", "211023.110000", "211024.110000", "211025.110000", "211026.110000", "211027.110000", "211028.110000", "211029.110000", "211030.110000", "211031.110000", "211032.110000", "211033.110000", "211034.110000", "211035.110000", "211036.110000", "211037.110000", "211038.110000", "211039.110000", "211040.110000", "211041.110000", "211042.110000", "211043.110000", "211044.110000", "211045.110000", "211046.110000", "211047.110000", "211048.110000", "211049.110000", "211050.110000", "211051.110000", "211052.110000", "211053.110000", "211054.110000", "211055.110000", "211056.110000", "211057.110000", "211058.110000", "211059.110000", "211100.110000", "211101.110000", "211102.110000", "211103.110000", "211104.110000", "211105.110000", "211106.110000", "211107.110000", "211108.110000", "211109.110000", "211110.110000", "211111.110000", "211112.110000", "211113.110000", "211114.110000", "211115.110000", "211116.110000", "211117.110000", "211118.110000", "211119.110000", "211120.110000", "211121.110000", "211122.110000", "211123.110000", "211124.110000", "211125.110000", "211126.110000", "211127.110000", "211128.110000", "211129.110000", "211130.110000", "211131.110000", "211132.110000", "211133.110000", "211134.110000", "211135.110000", "211136.110000", "211137.110000", "211138.110000", "211139.110000", "211140.110000", "211141.110000", "211142.110000", "211143.110000", "211144.110000", "211145.110000", "211146.110000", "211147.110000", "211148.110000", "211149.110000", "211150.110000", "211151.110000", "211152.110000", "211153.110000", "211154.110000", "211155.110000", "211156.110000", "211157.110000", "211158.110000", "211159.110000", "211200.110000", "211201.110000", "211202.110000", "211203.110000", "211204.110000", "211205.110000", "211206.110000", "211207.110000", "211208.110000", "211209.110000", "211210.110000", "211211.110000", "211212.110000", "211213.110000", "211214.110000", "211215.110000", "211216.110000", "211217.110000", "211218.110000", "211219.110000", "211220.110000", "211221.110000", "211222.110000", "211223.110000", "211224.110000", "211225.110000", "211226.110000", "211227.110000", "211228.110000", "211229.110000", "211230.110000", "211231.110000", "211232.110000", "211233.110000", "211234.110000", "211235.110000", "211236.110000", "211237.110000", "211238.110000", "211239.110000", "211240.110000", "211241.110000", "211242.110000", "211243.110000", "211244.110000", "211245.110000", "211246.110000", "211247.110000", "211248.110000", "211249.110000", "211250.110000", "211251.110000", "211252.110000", "211253.110000", "211254.110000", "211255.110000", "211256.110000", "211257.110000", "211258.110000", "211259.110000", "211300.110000", "211301.110000", "211302.110000", "211303.110000", "211304.110000", "211305.110000", "211306.110000", "211307.110000", "211308.110000", "211309.110000", "211310.110000", "211311.110000", "211312.110000", "211313.110000", "211314.110000", "211315.110000", "211316.110000", "211317.110000", "211318.110000", "211319.110000", "211320.110000", "211321.110000", "211322.110000", "211323.110000", "211324.110000", "211325.110000", "211326.110000", "211327.110000", "211328.110000", "211329.110000", "211330.110000", "211331.110000", "211332.110000", "211333.110000", "211334.110000", "211335.110000", "211336.110000", "211337.110000", "211338.110000", "211339.110000", "211340.110000", "211341.110000", "211342.110000", "211343.110000", "211344.110000", "211345.110000", "211346.110000", "211347.110000", "211348.110000", "211349.110000", "211350.110000", "211351.110000", "211352.110000", "211353.110000", "211354.110000", "211355.110000", "211356.110000", "211357.110000", "211358.110000", "211359.110000", "211400.110000", "211401.110000", "211402.110000", "211403.110000", "211404.110000", "211405.110000", "211406.110000", "211407.110000", "211408.110000", "211409.110000", "211410.110000", "211411.110000", "211412.110000", "211413.110000", "211414.110000", "211415.110000", "211416.110000", "211417.110000", "211418.110000", "211419.110000", "211420.110000", "211421.110000", "211422.110000", "211423.110000", "211424.110000", "211425.110000", "211426.110000", "211427.110000", "211428.110000", "211429.110000", "211430.110000", "211431.110000", "211432.110000", "211433.110000", "211434.110000", "211435.110000", "211436.110000", "211437.110000", "211438.110000", "211439.110000", "211440.110000"],
