{
  "AcquisitionMatrixPE": 96,
  "AcquisitionNumber": 1,
  "AcquisitionTime": "16:23:29.247500",
  "BaseResolution": 96,
  "BodyPartExamined": "BRAIN",
  "ConsistencyInfo": "N4_VE11C_LATEST_20160120",
  "ConversionSoftware": "dcm2niix",
  "ConversionSoftwareVersion": "v1.0.20190902",
  "DeviceSerialNumber": "66112",
  "DwellTime": 8.8e-06,
  "EchoNumber": 2,
  "EchoTime": 0.00738,
  "EchoTime1": 0.00492,
  "EchoTime2": 0.00738,
  "FlipAngle": 60,
  "ImageOrientationPatientDICOM": [
    0.999257,
    0.0354107,
    -0.0151983,
    -0.0362918,
    0.9974,
    -0.0622551
  ],
  "ImageType": [
    "ORIGINAL",
    "PRIMARY",
    "P",
    "ND"
  ],
  "ImagingFrequency": 123.252,
  "InPlanePhaseEncodingDirectionDICOM": "COL",
  "InstitutionAddress": "Maynard_3_Hanover_NH_US_03755",
  "InstitutionName": "Dartmouth_College_-_PBS",
  "InstitutionalDepartmentName": "Department",
  "IntendedFor": [
    "func/sub-sid000134_task-movie_run-01_bold.nii.gz",
    "func/sub-sid000134_task-movie_run-02_bold.nii.gz",
    "func/sub-sid000134_task-movie_run-03_bold.nii.gz",
    "func/sub-sid000134_task-movie_run-04_bold.nii.gz",
    "func/sub-sid000134_task-movie_run-05_bold.nii.gz"
  ],
  "MRAcquisitionType": "2D",
  "MagneticFieldStrength": 3,
  "Manufacturer": "Siemens",
  "ManufacturersModelName": "Prisma",
  "Modality": "MR",
  "PartialFourier": 1,
  "PatientPosition": "HFS",
  "PercentPhaseFOV": 100,
  "PhaseEncodingDirection": "j-",
  "PhaseEncodingSteps": 96,
  "PhaseResolution": 1,
  "PixelBandwidth": 590,
  "ProcedureStepDescription": "Gobbini_Matteo_1037_budapest",
  "ProtocolName": "fmap_acq-2.5mm",
  "PulseSequenceDetails": "%SiemensSeq%_gre_field_mapping",
  "ReceiveCoilActiveElements": "HEA;HEP",
  "ReceiveCoilName": "Head_32",
  "ReconMatrixPE": 96,
  "RepetitionTime": 0.675,
  "SAR": 0.0867643,
  "ScanningSequence": "GR",
  "SequenceName": "_fm2d2r",
  "SequenceVariant": "SP",
  "SeriesDescription": "fmap_acq-2.5mm",
  "SeriesNumber": 7,
  "ShimSetting": [
    4148,
    -7728,
    -7312,
    704,
    -59,
    -78,
    1,
    97
  ],
  "SliceThickness": 2.5,
  "SliceTiming": [
    0.34375,
    0,
    0.35938,
    0.01562,
    0.375,
    0.03125,
    0.39062,
    0.04688,
    0.39062,
    0.0625,
    0.40625,
    0.07812,
    0.42188,
    0.09375,
    0.4375,
    0.09375,
    0.45312,
    0.10938,
    0.46875,
    0.125,
    0.48438,
    0.14062,
    0.5,
    0.15625,
    0.51562,
    0.17188,
    0.53125,
    0.1875,
    0.53125,
    0.20312,
    0.54688,
    0.21875,
    0.5625,
    0.23438,
    0.57812,
    0.23438,
    0.59375,
    0.25,
    0.60938,
    0.26562,
    0.625,
    0.28125,
    0.64062,
    0.29688,
    0.65625,
    0.3125,
    0.65625,
    0.32812
  ],
  "SoftwareVersions": "syngo_MR_E11",
  "SpacingBetweenSlices": 2.5,
  "StationName": "AWP66112",
  "TxRefAmp": 230.61,
  "dcmmeta_affine": [
    [
      -2.498143196105957,
      -0.09072950482368469,
      -0.032385826110839844,
      123.7895736694336
    ],
    [
      -0.08852683007717133,
      2.4935004711151123,
      -0.15690112113952637,
      -102.00296020507812
    ],
    [
      -0.037995845079422,
      0.155637726187706,
      2.494861602783203,
      -74.94288635253906
    ],
    [
      0.0,
      0.0,
      0.0,
      1.0
    ]
  ],
  "dcmmeta_reorient_transform": [
    [
      0.0,
      -1.0,
      0.0,
      95.0
    ],
    [
      1.0,
      0.0,
      0.0,
      0.0
    ],
    [
      0.0,
      0.0,
      -1.0,
      47.0
    ],
    [
      0.0,
      0.0,
      0.0,
      1.0
    ]
  ],
  "dcmmeta_shape": [
    96,
    96,
    48
  ],
  "dcmmeta_slice_dim": 2,
  "dcmmeta_version": 0.6,
  "global": {
    "const": {
      "AccessionNumber": "A001265",
      "AcquisitionMatrix": [
        96,
        0,
        0,
        96
      ],
      "AcquisitionNumber": 1,
      "AngioFlag": "N",
      "BitsAllocated": 16,
      "BitsStored": 12,
      "BodyPartExamined": "BRAIN",
      "Columns": 96,
      "EchoNumbers": 2,
      "EchoTime": 7.38,
      "EchoTrainLength": 0,
      "FlipAngle": 60.0,
      "HighBit": 11,
      "ImageOrientationPatient": [
        0.99925726941775,
        0.03541073320341,
        -0.0151983383888,
        -0.036291802201,
        0.99740022511091,
        -0.0622550884804
      ],
      "ImageType": [
        "ORIGINAL",
        "PRIMARY",
        "P",
        "ND"
      ],
      "ImagedNucleus": "1H",
      "ImagingFrequency": 123.252302,
      "InPlanePhaseEncodingDirection": "COL",
      "MRAcquisitionType": "2D",
      "MagneticFieldStrength": 3.0,
      "Manufacturer": "SIEMENS",
      "ManufacturerModelName": "Prisma",
      "Modality": "MR",
      "NumberOfAverages": 1.0,
      "NumberOfPhaseEncodingSteps": 96,
      "PercentPhaseFieldOfView": 100.0,
      "PercentSampling": 100.0,
      "PerformedProcedureStepStartTime": "160714.090000",
      "PhotometricInterpretation": "MONOCHROME2",
      "PixelBandwidth": 590.0,
      "PixelRepresentation": 0,
      "PixelSpacing": [
        2.5,
        2.5
      ],
      "ProtocolName": "fmap_acq-2.5mm",
      "RepetitionTime": 675.0,
      "RescaleIntercept": -4096.0,
      "RescaleSlope": 2.0,
      "RescaleType": "US",
      "Rows": 96,
      "SAR": 0.08676432160103,
      "SamplesPerPixel": 1,
      "ScanningSequence": "GR",
      "SequenceName": "*fm2d2r",
      "SequenceVariant": "SP",
      "SeriesDescription": "fmap_acq-2.5mm",
      "SeriesNumber": 7,
      "SeriesTime": "162538.674000",
      "SliceThickness": 2.5,
      "SoftwareVersions": "syngo MR E11",
      "SpacingBetweenSlices": 2.5,
      "SpecificCharacterSet": "ISO_IR 100",
      "StudyID": "2",
      "StudyTime": "160714.043000",
      "TransmitCoilName": "Body",
      "VariableFlipAngleFlag": "N",
      "WindowCenterWidthExplanation": "Algo1",
      "dBdt": 0.0
    },
    "slices": {
      "AcquisitionTime": [
        "162329.247500",
        "162328.910000",
        "162329.260000",
        "162328.925000",
        "162329.275000",
        "162328.937500",
        "162329.290000",
        "162328.952500",
        "162329.302500",
        "162328.965000",
        "162329.317500",
        "162328.980000",
        "162329.332500",
        "162328.995000",
        "162329.345000",
        "162329.007500",
        "162329.360000",
        "162329.022500",
        "162329.372500",
        "162329.035000",
        "162329.387500",
        "162329.050000",
        "162329.402500",
        "162329.065000",
        "162329.415000",
        "162329.077500",
        "162329.430000",
        "162329.092500",
        "162329.445000",
        "162329.107500",
        "162329.457500",
        "162329.120000",
        "162329.472500",
        "162329.135000",
        "162329.485000",
        "162329.147500",
        "162329.500000",
        "162329.162500",
        "162329.515000",
        "162329.177500",
        "162329.527500",
        "162329.190000",
        "162329.542500",
        "162329.205000",
        "162329.557500",
        "162329.220000",
        "162329.570000",
        "162329.232500"
      ],
      "ContentTime": [
        "162538.731000",
        "162538.676000",
        "162538.733000",
        "162538.679000",
        "162538.735000",
        "162538.681000",
        "162538.737000",
        "162538.687000",
        "162538.739000",
        "162538.689000",
        "162538.741000",
        "162538.691000",
        "162538.744000",
        "162538.693000",
        "162538.746000",
        "162538.695000",
        "162538.748000",
        "162538.697000",
        "162538.750000",
        "162538.699000",
        "162538.752000",
        "162538.702000",
        "162538.754000",
        "162538.704000",
        "162538.756000",
        "162538.706000",
        "162538.758000",
        "162538.708000",
        "162538.760000",
        "162538.710000",
        "162538.762000",
        "162538.712000",
        "162538.764000",
        "162538.714000",
        "162538.766000",
        "162538.716000",
        "162538.768000",
        "162538.718000",
        "162538.770000",
        "162538.720000",
        "162538.772000",
        "162538.722000",
        "162538.774000",
        "162538.724000",
        "162538.776000",
        "162538.727000",
        "162538.778000",
        "162538.729000"
      ],
      "CsaImage.ICE_Dims": [
        "X_2_1_1_1_1_1_25_1_1_1_1_165",
        "X_2_1_1_1_1_1_1_1_1_2_1_165",
        "X_2_1_1_1_1_1_26_1_1_3_1_165",
        "X_2_1_1_1_1_1_2_1_1_4_1_165",
        "X_2_1_1_1_1_1_27_1_1_5_1_165",
        "X_2_1_1_1_1_1_3_1_1_6_1_165",
        "X_2_1_1_1_1_1_28_1_1_7_1_165",
        "X_2_1_1_1_1_1_4_1_1_8_1_165",
        "X_2_1_1_1_1_1_29_1_1_9_1_165",
        "X_2_1_1_1_1_1_5_1_1_10_1_165",
        "X_2_1_1_1_1_1_30_1_1_11_1_165",
        "X_2_1_1_1_1_1_6_1_1_12_1_165",
        "X_2_1_1_1_1_1_31_1_1_13_1_165",
        "X_2_1_1_1_1_1_7_1_1_14_1_165",
        "X_2_1_1_1_1_1_32_1_1_15_1_165",
        "X_2_1_1_1_1_1_8_1_1_16_1_165",
        "X_2_1_1_1_1_1_33_1_1_17_1_165",
        "X_2_1_1_1_1_1_9_1_1_18_1_165",
        "X_2_1_1_1_1_1_34_1_1_19_1_165",
        "X_2_1_1_1_1_1_10_1_1_20_1_165",
        "X_2_1_1_1_1_1_35_1_1_21_1_165",
        "X_2_1_1_1_1_1_11_1_1_22_1_165",
        "X_2_1_1_1_1_1_36_1_1_23_1_165",
        "X_2_1_1_1_1_1_12_1_1_24_1_165",
        "X_2_1_1_1_1_1_37_1_1_25_1_165",
        "X_2_1_1_1_1_1_13_1_1_26_1_165",
        "X_2_1_1_1_1_1_38_1_1_27_1_165",
        "X_2_1_1_1_1_1_14_1_1_28_1_165",
        "X_2_1_1_1_1_1_39_1_1_29_1_165",
        "X_2_1_1_1_1_1_15_1_1_30_1_165",
        "X_2_1_1_1_1_1_40_1_1_31_1_165",
        "X_2_1_1_1_1_1_16_1_1_32_1_165",
        "X_2_1_1_1_1_1_41_1_1_33_1_165",
        "X_2_1_1_1_1_1_17_1_1_34_1_165",
        "X_2_1_1_1_1_1_42_1_1_35_1_165",
        "X_2_1_1_1_1_1_18_1_1_36_1_165",
        "X_2_1_1_1_1_1_43_1_1_37_1_165",
        "X_2_1_1_1_1_1_19_1_1_38_1_165",
        "X_2_1_1_1_1_1_44_1_1_39_1_165",
        "X_2_1_1_1_1_1_20_1_1_40_1_165",
        "X_2_1_1_1_1_1_45_1_1_41_1_165",
        "X_2_1_1_1_1_1_21_1_1_42_1_165",
        "X_2_1_1_1_1_1_46_1_1_43_1_165",
        "X_2_1_1_1_1_1_22_1_1_44_1_165",
        "X_2_1_1_1_1_1_47_1_1_45_1_165",
        "X_2_1_1_1_1_1_23_1_1_46_1_165",
        "X_2_1_1_1_1_1_48_1_1_47_1_165",
        "X_2_1_1_1_1_1_24_1_1_48_1_165"
      ],
      "CsaImage.ProtocolSliceNumber": [
        0,
        1,
        2,
        3,
        4,
        5,
        6,
        7,
        8,
        9,
        10,
        11,
        12,
        13,
        14,
        15,
        16,
        17,
        18,
        19,
        20,
        21,
        22,
        23,
        24,
        25,
        26,
        27,
        28,
        29,
        30,
        31,
        32,
        33,
        34,
        35,
        36,
        37,
        38,
        39,
        40,
        41,
        42,
        43,
        44,
        45,
        46,
        47
      ],
      "CsaImage.SlicePosition_PCS": [
        [
          -115.17026706,
          -134.87958718,
          -60.15729471
        ],
        [
          -115.13788127,
          -134.72268678,
          -57.66242929
        ],
        [
          -115.10549544,
          -134.56578542,
          -55.1675715
        ],
        [
          -115.07310961,
          -134.40888406,
          -52.6727099
        ],
        [
          -115.04072382,
          -134.25198365,
          -50.1778483
        ],
        [
          -115.00833799,
          -134.09508229,
          -47.68298669
        ],
        [
          -114.97595217,
          -133.93818093,
          -45.18812509
        ],
        [
          -114.94356634,
          -133.78128053,
          -42.69326349
        ],
        [
          -114.91118057,
          -133.62437917,
          -40.19840189
        ],
        [
          -114.87879475,
          -133.46747781,
          -37.70354028
        ],
        [
          -114.84640892,
          -133.3105774,
          -35.2086825
        ],
        [
          -114.81402309,
          -133.15367604,
          -32.71382089
        ],
        [
          -114.78163727,
          -132.99677468,
          -30.21895929
        ],
        [
          -114.74925144,
          -132.83987428,
          -27.72409769
        ],
        [
          -114.71686568,
          -132.68297292,
          -25.22923608
        ],
        [
          -114.68447985,
          -132.52607156,
          -22.73437448
        ],
        [
          -114.65209402,
          -132.36917115,
          -20.23951288
        ],
        [
          -114.6197082,
          -132.21226979,
          -17.74465128
        ],
        [
          -114.58732237,
          -132.05536843,
          -15.24978967
        ],
        [
          -114.5549366,
          -131.89846755,
          -12.75492807
        ],
        [
          -114.52255078,
          -131.74156667,
          -10.26006647
        ],
        [
          -114.49016495,
          -131.58466531,
          -7.76520486
        ],
        [
          -114.45777913,
          -131.42776443,
          -5.27034422
        ],
        [
          -114.4253933,
          -131.27086354,
          -2.77548261
        ],
        [
          -114.39300747,
          -131.11396218,
          -0.28062196
        ],
        [
          -114.36062165,
          -130.9570613,
          2.21423964
        ],
        [
          -114.32823582,
          -130.80016042,
          4.70910124
        ],
        [
          -114.29585,
          -130.64325906,
          7.20396237
        ],
        [
          -114.26346429,
          -130.48635818,
          9.69882382
        ],
        [
          -114.23107846,
          -130.32945729,
          12.1936851
        ],
        [
          -114.19869264,
          -130.17255593,
          14.6885467
        ],
        [
          -114.16630681,
          -130.01565505,
          17.18340783
        ],
        [
          -114.13392098,
          -129.85875369,
          19.67826895
        ],
        [
          -114.10153516,
          -129.70185281,
          22.17313055
        ],
        [
          -114.06914933,
          -129.54495193,
          24.66799216
        ],
        [
          -114.03676351,
          -129.38805057,
          27.16285376
        ],
        [
          -114.00437768,
          -129.23114968,
          29.65771536
        ],
        [
          -113.97199185,
          -129.0742488,
          32.15257697
        ],
        [
          -113.93960603,
          -128.91734744,
          34.64743666
        ],
        [
          -113.9072202,
          -128.76044656,
          37.14229826
        ],
        [
          -113.87483449,
          -128.60354568,
          39.63715987
        ],
        [
          -113.84244867,
          -128.44664432,
          42.13202338
        ],
        [
          -113.81006284,
          -128.28974343,
          44.62688116
        ],
        [
          -113.77767702,
          -128.13284207,
          47.12174277
        ],
        [
          -113.74529119,
          -127.97594119,
          49.61660437
        ],
        [
          -113.71290536,
          -127.81904031,
          52.11146597
        ],
        [
          -113.68051954,
          -127.66213919,
          54.60632758
        ],
        [
          -113.64813371,
          -127.50523807,
          57.10118918
        ]
      ],
      "CsaImage.TimeAfterStart": [
        1.015,
        0.6775,
        1.0275,
        0.6925,
        1.0425,
        0.705,
        1.0575,
        0.72,
        1.07,
        0.7325,
        1.085,
        0.7475,
        1.1,
        0.7625,
        1.1125,
        0.775,
        1.1275,
        0.79,
        1.14,
        0.8025,
        1.155,
        0.8175,
        1.17,
        0.8325,
        1.1825,
        0.845,
        1.1975,
        0.86,
        1.2125,
        0.875,
        1.225,
        0.8875,
        1.24,
        0.9025,
        1.2525,
        0.915,
        1.2675,
        0.93,
        1.2825,
        0.945,
        1.295,
        0.9575,
        1.31,
        0.9725,
        1.325,
        0.9875,
        1.3375,
        1.0
      ],
      "ImagePositionPatient": [
        [
          -115.17026706245,
          -134.879587184,
          -60.157294708316
        ],
        [
          -115.13788126614,
          -134.72268677811,
          -57.662429290835
        ],
        [
          -115.10549544003,
          -134.56578541856,
          -55.167571502749
        ],
        [
          -115.07310961392,
          -134.408884059,
          -52.672709899966
        ],
        [
          -115.04072381761,
          -134.25198365311,
          -50.177848297183
        ],
        [
          -115.0083379915,
          -134.09508229356,
          -47.6829866944
        ],
        [
          -114.97595216539,
          -133.938180934,
          -45.188125091617
        ],
        [
          -114.94356633928,
          -133.78128052811,
          -42.693263488833
        ],
        [
          -114.91118057278,
          -133.62437916856,
          -40.19840188605
        ],
        [
          -114.87879474666,
          -133.467477809,
          -37.703540283267
        ],
        [
          -114.84640892055,
          -133.31057740311,
          -35.208682495181
        ],
        [
          -114.81402309444,
          -133.15367604356,
          -32.713820892398
        ],
        [
          -114.78163726833,
          -132.996774684,
          -30.218959289615
        ],
        [
          -114.74925144222,
          -132.83987427811,
          -27.724097686831
        ],
        [
          -114.71686567572,
          -132.68297291856,
          -25.229236084048
        ],
        [
          -114.6844798496,
          -132.526071559,
          -22.734374481265
        ],
        [
          -114.65209402349,
          -132.36917115311,
          -20.239512878482
        ],
        [
          -114.61970819738,
          -132.21226979356,
          -17.744651275699
        ],
        [
          -114.58732237127,
          -132.055368434,
          -15.249789672915
        ],
        [
          -114.55493660477,
          -131.89846755128,
          -12.754928070132
        ],
        [
          -114.52255077865,
          -131.74156666856,
          -10.260066467349
        ],
        [
          -114.49016495254,
          -131.584665309,
          -7.7652048645658
        ],
        [
          -114.45777912643,
          -131.42776442628,
          -5.2703442154569
        ],
        [
          -114.42539330032,
          -131.27086354356,
          -2.7754826126737
        ],
        [
          -114.39300747421,
          -131.113962184,
          -0.2806219635649
        ],
        [
          -114.3606216481,
          -130.95706130128,
          2.2142396392184
        ],
        [
          -114.32823582199,
          -130.80016041856,
          4.7091012420016
        ],
        [
          -114.29584999588,
          -130.643259059,
          7.2039623679476
        ],
        [
          -114.26346428898,
          -130.48635817628,
          9.6988238217192
        ],
        [
          -114.23107846287,
          -130.32945729356,
          12.193685096677
        ],
        [
          -114.19869263676,
          -130.172555934,
          14.68854669946
        ],
        [
          -114.16630681064,
          -130.01565505128,
          17.183407825406
        ],
        [
          -114.13392098453,
          -129.85875369172,
          19.678268951352
        ],
        [
          -114.10153515842,
          -129.701852809,
          22.173130554135
        ],
        [
          -114.06914933231,
          -129.54495192628,
          24.667992156919
        ],
        [
          -114.0367635062,
          -129.38805056672,
          27.162853759702
        ],
        [
          -114.00437768009,
          -129.231149684,
          29.657715362485
        ],
        [
          -113.97199185398,
          -129.07424880128,
          32.152576965268
        ],
        [
          -113.93960602787,
          -128.91734744172,
          34.647436660703
        ],
        [
          -113.90722020176,
          -128.760446559,
          37.142298263486
        ],
        [
          -113.87483449486,
          -128.60354567628,
          39.637159866269
        ],
        [
          -113.84244866875,
          -128.44664431672,
          42.132023376401
        ],
        [
          -113.81006284263,
          -128.289743434,
          44.626881164487
        ],
        [
          -113.77767701652,
          -128.13284207444,
          47.12174276727
        ],
        [
          -113.74529119041,
          -127.97594119172,
          49.616604370053
        ],
        [
          -113.7129053643,
          -127.819040309,
          52.111465972837
        ],
        [
          -113.68051953819,
          -127.66213918786,
          54.60632757562
        ],
        [
          -113.64813371208,
          -127.50523806672,
          57.101189178403
        ]
      ],
      "InstanceCreationTime": [
        "162538.731000",
        "162538.676000",
        "162538.733000",
        "162538.679000",
        "162538.735000",
        "162538.681000",
        "162538.737000",
        "162538.687000",
        "162538.739000",
        "162538.689000",
        "162538.741000",
        "162538.691000",
        "162538.744000",
        "162538.693000",
        "162538.746000",
        "162538.695000",
        "162538.748000",
        "162538.697000",
        "162538.750000",
        "162538.699000",
        "162538.752000",
        "162538.702000",
        "162538.754000",
        "162538.704000",
        "162538.756000",
        "162538.706000",
        "162538.758000",
        "162538.708000",
        "162538.760000",
        "162538.710000",
        "162538.762000",
        "162538.712000",
        "162538.764000",
        "162538.714000",
        "162538.766000",
        "162538.716000",
        "162538.768000",
        "162538.718000",
        "162538.770000",
        "162538.720000",
        "162538.772000",
        "162538.722000",
        "162538.774000",
        "162538.724000",
        "162538.776000",
        "162538.727000",
        "162538.778000",
        "162538.729000"
      ],
      "InstanceNumber": [
        1,
        2,
        3,
        4,
        5,
        6,
        7,
        8,
        9,
        10,
        11,
        12,
        13,
        14,
        15,
        16,
        17,
        18,
        19,
        20,
        21,
        22,
        23,
        24,
        25,
        26,
        27,
        28,
        29,
        30,
        31,
        32,
        33,
        34,
        35,
        36,
        37,
        38,
        39,
        40,
        41,
        42,
        43,
        44,
        45,
        46,
        47,
        48
      ],
      "LargestImagePixelValue": [
        4094,
        4095,
        4094,
        4094,
        4095,
        4094,
        4093,
        4095,
        4094,
        4092,
        4095,
        4094,
        4094,
        4093,
        4092,
        4095,
        4091,
        4094,
        4095,
        4095,
        4089,
        4093,
        4095,
        4092,
        4093,
        4092,
        4090,
        4094,
        4091,
        4093,
        4095,
        4090,
        4090,
        4095,
        4095,
        4095,
        4095,
        4095,
        4095,
        4094,
        4093,
        4095,
        4095,
        4092,
        4092,
        4095,
        4095,
        4095
      ],
      "SliceLocation": [
        -69.99069766603,
        -67.490693660332,
        -64.990697208107,
        -62.490696949026,
        -59.990696750184,
        -57.490696491103,
        -54.990696232021,
        -52.490696032793,
        -49.990695774484,
        -47.490695515403,
        -44.990699123031,
        -42.49069886395,
        -39.990698604869,
        -37.490698405641,
        -34.990698147332,
        -32.49069788825,
        -29.990697689022,
        -27.490697429941,
        -24.99069717086,
        -22.490696942477,
        -19.990696713323,
        -17.490696454242,
        -14.990697176801,
        -12.490696947646,
        -9.9906976402791,
        -7.4906974111245,
        -4.9906971819698,
        -2.4906973987457,
        0.00930268015941,
        2.5093025821624,
        5.0093028412436,
        7.5093025945412,
        10.009302377765,
        12.50930260692,
        15.009302836075,
        17.509303095156,
        20.009303324311,
        22.509303553465,
        25.009301909118,
        27.509302138273,
        30.009302365883,
        32.509304528393,
        35.009300950691,
        37.509301209772,
        40.009301438927,
        42.509301668082,
        45.009301912199,
        47.509302156317
      ],
      "SmallestImagePixelValue": [
        0,
        1,
        1,
        4,
        0,
        0,
        0,
        0,
        0,
        0,
        0,
        0,
        0,
        0,
        3,
        0,
        0,
        1,
        0,
        6,
        0,
        2,
        0,
        3,
        4,
        2,
        0,
        4,
        0,
        0,
        12,
        2,
        2,
        0,
        6,
        2,
        0,
        0,
        3,
        0,
        2,
        1,
        0,
        0,
        0,
        5,
        0,
        0
      ],
      "WindowCenter": [
        -274.0,
        -220.0,
        -194.0,
        -200.0,
        -218.0,
        -284.0,
        -338.0,
        -346.0,
        -346.0,
        -318.0,
        -274.0,
        -254.0,
        -260.0,
        -298.0,
        -182.0,
        -194.0,
        -176.0,
        -220.0,
        -134.0,
        -120.0,
        -252.0,
        -244.0,
        -228.0,
        -242.0,
        -210.0,
        -226.0,
        -230.0,
        -256.0,
        -282.0,
        -274.0,
        -274.0,
        -282.0,
        -302.0,
        -276.0,
        -290.0,
        -288.0,
        -188.0,
        -218.0,
        -164.0,
        -174.0,
        -150.0,
        -186.0,
        -200.0,
        -206.0,
        -234.0,
        -262.0,
        -312.0,
        -262.0
      ],
      "WindowWidth": [
        5976.0,
        5950.0,
        5980.0,
        5980.0,
        6036.0,
        5940.0,
        5696.0,
        5758.0,
        5848.0,
        5750.0,
        5634.0,
        5498.0,
        5426.0,
        5192.0,
        5524.0,
        5392.0,
        5524.0,
        5054.0,
        5430.0,
        5290.0,
        4620.0,
        4598.0,
        4586.0,
        4574.0,
        4566.0,
        4552.0,
        4552.0,
        4538.0,
        4560.0,
        4550.0,
        4556.0,
        4564.0,
        4584.0,
        4614.0,
        4646.0,
        4668.0,
        5248.0,
        5136.0,
        5514.0,
        5714.0,
        5838.0,
        5964.0,
        6048.0,
        6074.0,
        6184.0,
        6236.0,
        6316.0,
        6430.0
      ]
    }
  }
}