{
  "AcquisitionMatrixPE": 96,
  "AcquisitionNumber": 1,
  "AcquisitionTime": "18:34:46.955000",
  "BandwidthPerPixelPhaseEncode": 18.939,
  "BaseResolution": 96,
  "BodyPartExamined": "BRAIN",
  "ConsistencyInfo": "N4_VE11C_LATEST_20160120",
  "ConversionSoftware": "dcm2niix",
  "ConversionSoftwareVersion": "v1.0.20190902",
  "DerivedVendorReportedEchoSpacing": 0.000550011,
  "DeviceSerialNumber": "66112",
  "DwellTime": 2.2e-06,
  "EchoTime": 0.033,
  "EchoTrainLength": 96,
  "EffectiveEchoSpacing": 0.000550011,
  "FlipAngle": 59,
  "ImageOrientationPatientDICOM": [0.999111, 0.0399387, 0.0135113, -0.0415258, 0.987604, 0.151377],
  "ImageType": [
    "ORIGINAL",
    "PRIMARY",
    "FMRI",
    "NONE",
    "ND",
    "NORM",
    "MOSAIC"
],
  "ImagingFrequency": 123.252,
  "InPlanePhaseEncodingDirectionDICOM": "COL",
  "InstitutionAddress": "Maynard_3_Hanover_NH_US_03755",
  "InstitutionName": "Dartmouth_College_-_PBS",
  "InstitutionalDepartmentName": "Department",
  "MRAcquisitionType": "2D",
  "MagneticFieldStrength": 3,
  "Manufacturer": "Siemens",
  "ManufacturersModelName": "Prisma",
  "Modality": "MR",
  "MultibandAccelerationFactor": 4,
  "PartialFourier": 1,
  "PatientPosition": "HFS",
  "PercentPhaseFOV": 100,
  "PhaseEncodingDirection": "j-",
  "PhaseEncodingSteps": 96,
  "PhaseResolution": 1,
  "PixelBandwidth": 2365,
  "ProcedureStepDescription": "Gobbini_Matteo_1037_budapest",
  "ProtocolName": "func_run-05_task-movie",
  "PulseSequenceDetails": "%SiemensSeq%_ep2d_bold",
  "ReceiveCoilActiveElements": "HEA;HEP",
  "ReceiveCoilName": "Head_32",
  "ReconMatrixPE": 96,
  "RefLinesPE": 12,
  "RepetitionTime": 1,
  "SAR": 0.0528645,
  "ScanOptions": "FS",
  "ScanningSequence": "EP",
  "SequenceName": "_epfid2d1_96",
  "SequenceVariant": "SK",
  "SeriesDescription": "func_run-05_task-movie",
  "SeriesNumber": 36,
  "ShimSetting": [4132, -7721, -7294, 540, -4, -215, 22, 77],
  "SliceThickness": 2.5,
  "SliceTiming": [0.735, 0, 0.49, 0.0825, 0.5725, 0.1625, 0.6525, 0.3275, 0.8175, 0.4075, 0.8975, 0.245, 0.735, 0, 0.49, 0.0825, 0.5725, 0.1625, 0.6525, 0.3275, 0.8175, 0.4075, 0.8975, 0.245, 0.735, 0, 0.49, 0.0825, 0.5725, 0.1625, 0.6525, 0.3275, 0.8175, 0.4075, 0.8975, 0.245, 0.735, 0, 0.49, 0.0825, 0.5725, 0.1625, 0.6525, 0.3275, 0.8175, 0.4075, 0.8975, 0.245],
  "SoftwareVersions": "syngo_MR_E11",
  "SpacingBetweenSlices": 2.5,
  "StationName": "AWP66112",
  "TaskName": "movie",
  "TotalReadoutTime": 0.0522511,
  "TxRefAmp": 255.721,
  "dcmmeta_affine": [
    [-2.497776985168457, -0.10381443798542023, 0.018244992941617966, 127.28705596923828],
    [-0.09984663873910904, 2.4690089225769043, 0.37950775027275085, -107.25621795654297],
    [0.033778171986341476, -0.37844160199165344, 2.470959424972534, -51.45216751098633],
    [0.0, 0.0, 0.0, 1.0]
],
  "dcmmeta_reorient_transform": [
    [0.0, -1.0, 0.0, 95.0],
    [1.0, 0.0, 0.0, 0.0],
    [0.0, 0.0, 1.0, 0.0],
    [0.0, 0.0, 0.0, 1.0]
],
  "dcmmeta_shape": [96, 96, 48, 803],
  "dcmmeta_slice_dim": 2,
  "dcmmeta_version": 0.6,
  "global": {
    "const": {
      "AccessionNumber": "A001174",
      "AcquisitionMatrix": [96, 0, 0, 96],
      "AngioFlag": "N",
      "BitsAllocated": 16,
      "BitsStored": 12,
      "BodyPartExamined": "BRAIN",
      "Columns": 672,
      "EchoNumbers": 1,
      "EchoTime": 33.0,
      "EchoTrainLength": 96,
      "FlipAngle": 59.0,
      "HighBit": 11,
      "ImageOrientationPatient": [0.99911077931987, 0.03993865632632, 0.01351126854521, -0.0415257737724, 0.98760352557341, 0.15137663752239],
      "ImagePositionPatient": [-806.8858850123, -867.12999327589, -206.12341006651],
      "ImageType": [
        "ORIGINAL",
        "PRIMARY",
        "FMRI",
        "NONE",
        "ND",
        "NORM",
        "MOSAIC"
],
      "ImagedNucleus": "1H",
      "ImagingFrequency": 123.252301,
      "InPlanePhaseEncodingDirection": "COL",
      "MRAcquisitionType": "2D",
      "MagneticFieldStrength": 3.0,
      "Manufacturer": "SIEMENS",
      "ManufacturerModelName": "Prisma",
      "Modality": "MR",
      "NumberOfAverages": 1.0,
      "NumberOfPhaseEncodingSteps": 96,
      "PercentPhaseFieldOfView": 100.0,
      "PercentSampling": 100.0,
      "PerformedProcedureStepStartTime": "174426.543000",
      "PhotometricInterpretation": "MONOCHROME2",
      "PixelBandwidth": 2365.0,
      "PixelRepresentation": 0,
      "PixelSpacing": [2.5, 2.5],
      "ProtocolName": "func_run-05_task-movie",
      "RepetitionTime": 1000.0,
      "Rows": 672,
      "SAR": 0.05286454810728,
      "SamplesPerPixel": 1,
      "ScanOptions": "FS",
      "ScanningSequence": "EP",
      "SequenceName": "*epfid2d1_96",
      "SequenceVariant": "SK",
      "SeriesDescription": "func_run-05_task-movie",
      "SeriesNumber": 36,
      "SeriesTime": "183448.775000",
      "SliceLocation": -66.20737323768,
      "SliceThickness": 2.5,
      "SmallestImagePixelValue": 0,
      "SoftwareVersions": "syngo MR E11",
      "SpacingBetweenSlices": 2.4999999935506,
      "SpecificCharacterSet": "ISO_IR 100",
      "StudyID": "1",
      "StudyTime": "174426.481000",
      "TransmitCoilName": "Body",
      "VariableFlipAngleFlag": "N",
      "WindowCenterWidthExplanation": "Algo1",
      "dBdt": 0.0},
    "slices": {}
  },
  "time": {
    "samples": {
      "AcquisitionNumber": [1, 2, 3, 4, 5, 6, 7, 8, 9, 10, 11, 12, 13, 14, 15, 16, 17, 18, 19, 20, 21, 22, 23, 24, 25, 26, 27, 28, 29, 30, 31, 32, 33, 34, 35, 36, 37, 38, 39, 40, 41, 42, 43, 44, 45, 46, 47, 48, 49, 50, 51, 52, 53, 54, 55, 56, 57, 58, 59, 60, 61, 62, 63, 64, 65, 66, 67, 68, 69, 70, 71, 72, 73, 74, 75, 76, 77, 78, 79, 80, 81, 82, 83, 84, 85, 86, 87, 88, 89, 90, 91, 92, 93, 94, 95, 96, 97, 98, 99, 100, 101, 102, 103, 104, 105, 106, 107, 108, 109, 110, 111, 112, 113, 114, 115, 116, 117, 118, 119, 120, 121, 122, 123, 124, 125, 126, 127, 128, 129, 130, 131, 132, 133, 134, 135, 136, 137, 138, 139, 140, 141, 142, 143, 144, 145, 146, 147, 148, 149, 150, 151, 152, 153, 154, 155, 156, 157, 158, 159, 160, 161, 162, 163, 164, 165, 166, 167, 168, 169, 170, 171, 172, 173, 174, 175, 176, 177, 178, 179, 180, 181, 182, 183, 184, 185, 186, 187, 188, 189, 190, 191, 192, 193, 194, 195, 196, 197, 198, 199, 200, 201, 202, 203, 204, 205, 206, 207, 208, 209, 210, 211, 212, 213, 214, 215, 216, 217, 218, 219, 220, 221, 222, 223, 224, 225, 226, 227, 228, 229, 230, 231, 232, 233, 234, 235, 236, 237, 238, 239, 240, 241, 242, 243, 244, 245, 246, 247, 248, 249, 250, 251, 252, 253, 254, 255, 256, 257, 258, 259, 260, 261, 262, 263, 264, 265, 266, 267, 268, 269, 270, 271, 272, 273, 274, 275, 276, 277, 278, 279, 280, 281, 282, 283, 284, 285, 286, 287, 288, 289, 290, 291, 292, 293, 294, 295, 296, 297, 298, 299, 300, 301, 302, 303, 304, 305, 306, 307, 308, 309, 310, 311, 312, 313, 314, 315, 316, 317, 318, 319, 320, 321, 322, 323, 324, 325, 326, 327, 328, 329, 330, 331, 332, 333, 334, 335, 336, 337, 338, 339, 340, 341, 342, 343, 344, 345, 346, 347, 348, 349, 350, 351, 352, 353, 354, 355, 356, 357, 358, 359, 360, 361, 362, 363, 364, 365, 366, 367, 368, 369, 370, 371, 372, 373, 374, 375, 376, 377, 378, 379, 380, 381, 382, 383, 384, 385, 386, 387, 388, 389, 390, 391, 392, 393, 394, 395, 396, 397, 398, 399, 400, 401, 402, 403, 404, 405, 406, 407, 408, 409, 410, 411, 412, 413, 414, 415, 416, 417, 418, 419, 420, 421, 422, 423, 424, 425, 426, 427, 428, 429, 430, 431, 432, 433, 434, 435, 436, 437, 438, 439, 440, 441, 442, 443, 444, 445, 446, 447, 448, 449, 450, 451, 452, 453, 454, 455, 456, 457, 458, 459, 460, 461, 462, 463, 464, 465, 466, 467, 468, 469, 470, 471, 472, 473, 474, 475, 476, 477, 478, 479, 480, 481, 482, 483, 484, 485, 486, 487, 488, 489, 490, 491, 492, 493, 494, 495, 496, 497, 498, 499, 500, 501, 502, 503, 504, 505, 506, 507, 508, 509, 510, 511, 512, 513, 514, 515, 516, 517, 518, 519, 520, 521, 522, 523, 524, 525, 526, 527, 528, 529, 530, 531, 532, 533, 534, 535, 536, 537, 538, 539, 540, 541, 542, 543, 544, 545, 546, 547, 548, 549, 550, 551, 552, 553, 554, 555, 556, 557, 558, 559, 560, 561, 562, 563, 564, 565, 566, 567, 568, 569, 570, 571, 572, 573, 574, 575, 576, 577, 578, 579, 580, 581, 582, 583, 584, 585, 586, 587, 588, 589, 590, 591, 592, 593, 594, 595, 596, 597, 598, 599, 600, 601, 602, 603, 604, 605, 606, 607, 608, 609, 610, 611, 612, 613, 614, 615, 616, 617, 618, 619, 620, 621, 622, 623, 624, 625, 626, 627, 628, 629, 630, 631, 632, 633, 634, 635, 636, 637, 638, 639, 640, 641, 642, 643, 644, 645, 646, 647, 648, 649, 650, 651, 652, 653, 654, 655, 656, 657, 658, 659, 660, 661, 662, 663, 664, 665, 666, 667, 668, 669, 670, 671, 672, 673, 674, 675, 676, 677, 678, 679, 680, 681, 682, 683, 684, 685, 686, 687, 688, 689, 690, 691, 692, 693, 694, 695, 696, 697, 698, 699, 700, 701, 702, 703, 704, 705, 706, 707, 708, 709, 710, 711, 712, 713, 714, 715, 716, 717, 718, 719, 720, 721, 722, 723, 724, 725, 726, 727, 728, 729, 730, 731, 732, 733, 734, 735, 736, 737, 738, 739, 740, 741, 742, 743, 744, 745, 746, 747, 748, 749, 750, 751, 752, 753, 754, 755, 756, 757, 758, 759, 760, 761, 762, 763, 764, 765, 766, 767, 768, 769, 770, 771, 772, 773, 774, 775, 776, 777, 778, 779, 780, 781, 782, 783, 784, 785, 786, 787, 788, 789, 790, 791, 792, 793, 794, 795, 796, 797, 798, 799, 800, 801, 802, 803],
      "AcquisitionTime": ["183446.955000", "183447.955000", "183448.955000", "183449.955000", "183450.955000", "183451.955000", "183452.955000", "183453.955000", "183454.955000", "183455.955000", "183456.955000", "183457.955000", "183458.955000", "183459.955000", "183500.955000", "183501.955000", "183502.955000", "183503.955000", "183504.955000", "183505.955000", "183506.955000", "183507.955000", "183508.955000", "183509.955000", "183510.955000", "183511.955000", "183512.955000", "183513.955000", "183514.955000", "183515.955000", "183516.955000", "183517.955000", "183518.955000", "183519.955000", "183520.955000", "183521.955000", "183522.955000", "183523.955000", "183524.955000", "183525.955000", "183526.955000", "183527.955000", "183528.955000", "183529.955000", "183530.955000", "183531.955000", "183532.955000", "183533.955000", "183534.955000", "183535.955000", "183536.955000", "183537.955000", "183538.955000", "183539.955000", "183540.955000", "183541.955000", "183542.955000", "183543.955000", "183544.955000", "183545.955000", "183546.955000", "183547.955000", "183548.955000", "183549.955000", "183550.955000", "183551.955000", "183552.955000", "183553.955000", "183554.955000", "183555.955000", "183556.955000", "183557.955000", "183558.955000", "183559.955000", "183600.955000", "183601.955000", "183602.955000", "183603.955000", "183604.955000", "183605.955000", "183606.955000", "183607.955000", "183608.955000", "183609.955000", "183610.955000", "183611.955000", "183612.955000", "183613.955000", "183614.955000", "183615.955000", "183616.955000", "183617.955000", "183618.955000", "183619.955000", "183620.955000", "183621.955000", "183622.955000", "183623.955000", "183624.955000", "183625.955000", "183626.955000", "183627.955000", "183628.955000", "183629.955000", "183630.955000", "183631.955000", "183632.955000", "183633.955000", "183634.955000", "183635.955000", "183636.955000", "183637.955000", "183638.955000", "183639.955000", "183640.955000", "183641.955000", "183642.955000", "183643.955000", "183644.955000", "183645.955000", "183646.955000", "183647.955000", "183648.955000", "183649.955000", "183650.955000", "183651.955000", "183652.955000", "183653.955000", "183654.955000", "183655.955000", "183656.955000", "183657.955000", "183658.955000", "183659.955000", "183700.955000", "183701.955000", "183702.955000", "183703.955000", "183704.955000", "183705.955000", "183706.955000", "183707.955000", "183708.955000", "183709.955000", "183710.955000", "183711.955000", "183712.955000", "183713.955000", "183714.955000", "183715.955000", "183716.955000", "183717.955000", "183718.955000", "183719.955000", "183720.955000", "183721.955000", "183722.955000", "183723.955000", "183724.955000", "183725.955000", "183726.955000", "183727.955000", "183728.955000", "183729.955000", "183730.955000", "183731.955000", "183732.955000", "183733.955000", "183734.955000", "183735.955000", "183736.955000", "183737.955000", "183738.955000", "183739.955000", "183740.955000", "183741.955000", "183742.955000", "183743.955000", "183744.955000", "183745.955000", "183746.955000", "183747.955000", "183748.955000", "183749.955000", "183750.955000", "183751.955000", "183752.955000", "183753.955000", "183754.955000", "183755.955000", "183756.955000", "183757.955000", "183758.955000", "183759.955000", "183800.955000", "183801.955000", "183802.955000", "183803.955000", "183804.955000", "183805.955000", "183806.955000", "183807.955000", "183808.955000", "183809.955000", "183810.955000", "183811.955000", "183812.955000", "183813.955000", "183814.955000", "183815.955000", "183816.955000", "183817.955000", "183818.955000", "183819.955000", "183820.955000", "183821.955000", "183822.955000", "183823.955000", "183824.955000", "183825.955000", "183826.955000", "183827.955000", "183828.955000", "183829.955000", "183830.955000", "183831.955000", "183832.955000", "183833.955000", "183834.955000", "183835.955000", "183836.955000", "183837.955000", "183838.955000", "183839.955000", "183840.955000", "183841.955000", "183842.955000", "183843.955000", "183844.955000", "183845.955000", "183846.955000", "183847.955000", "183848.955000", "183849.955000", "183850.955000", "183851.955000", "183852.955000", "183853.955000", "183854.955000", "183855.955000", "183856.955000", "183857.955000", "183858.955000", "183859.955000", "183900.955000", "183901.955000", "183902.955000", "183903.955000", "183904.955000", "183905.955000", "183906.955000", "183907.955000", "183908.955000", "183909.955000", "183910.955000", "183911.955000", "183912.955000", "183913.955000", "183914.955000", "183915.955000", "183916.955000", "183917.955000", "183918.955000", "183919.955000", "183920.955000", "183921.955000", "183922.955000", "183923.955000", "183924.955000", "183925.955000", "183926.955000", "183927.955000", "183928.955000", "183929.955000", "183930.955000", "183931.955000", "183932.955000", "183933.955000", "183934.955000", "183935.955000", "183936.955000", "183937.955000", "183938.955000", "183939.955000", "183940.955000", "183941.955000", "183942.955000", "183943.955000", "183944.955000", "183945.955000", "183946.955000", "183947.955000", "183948.955000", "183949.955000", "183950.955000", "183951.955000", "183952.955000", "183953.955000", "183954.955000", "183955.955000", "183956.955000", "183957.955000", "183958.955000", "183959.955000", "184000.955000", "184001.955000", "184002.955000", "184003.955000", "184004.955000", "184005.955000", "184006.955000", "184007.955000", "184008.955000", "184009.955000", "184010.955000", "184011.955000", "184012.955000", "184013.955000", "184014.955000", "184015.955000", "184016.955000", "184017.955000", "184018.955000", "184019.955000", "184020.955000", "184021.955000", "184022.955000", "184023.955000", "184024.955000", "184025.955000", "184026.955000", "184027.955000", "184028.955000", "184029.955000", "184030.955000", "184031.955000", "184032.955000", "184033.955000", "184034.955000", "184035.955000", "184036.955000", "184037.955000", "184038.955000", "184039.955000", "184040.955000", "184041.955000", "184042.955000", "184043.955000", "184044.955000", "184045.955000", "184046.955000", "184047.955000", "184048.955000", "184049.955000", "184050.955000", "184051.955000", "184052.955000", "184053.955000", "184054.955000", "184055.955000", "184056.955000", "184057.955000", "184058.955000", "184059.955000", "184100.955000", "184101.955000", "184102.955000", "184103.955000", "184104.955000", "184105.955000", "184106.955000", "184107.955000", "184108.955000", "184109.955000", "184110.955000", "184111.955000", "184112.955000", "184113.955000", "184114.955000", "184115.955000", "184116.955000", "184117.955000", "184118.955000", "184119.955000", "184120.955000", "184121.955000", "184122.955000", "184123.955000", "184124.955000", "184125.955000", "184126.955000", "184127.955000", "184128.955000", "184129.955000", "184130.955000", "184131.955000", "184132.955000", "184133.955000", "184134.955000", "184135.955000", "184136.955000", "184137.955000", "184138.955000", "184139.955000", "184140.955000", "184141.955000", "184142.955000", "184143.955000", "184144.955000", "184145.955000", "184146.955000", "184147.955000", "184148.955000", "184149.955000", "184150.955000", "184151.955000", "184152.955000", "184153.955000", "184154.955000", "184155.955000", "184156.955000", "184157.955000", "184158.955000", "184159.955000", "184200.955000", "184201.955000", "184202.955000", "184203.955000", "184204.955000", "184205.955000", "184206.955000", "184207.955000", "184208.955000", "184209.955000", "184210.955000", "184211.955000", "184212.955000", "184213.955000", "184214.955000", "184215.955000", "184216.955000", "184217.955000", "184218.955000", "184219.955000", "184220.955000", "184221.955000", "184222.955000", "184223.955000", "184224.955000", "184225.955000", "184226.955000", "184227.955000", "184228.955000", "184229.955000", "184230.955000", "184231.955000", "184232.955000", "184233.955000", "184234.955000", "184235.955000", "184236.955000", "184237.955000", "184238.955000", "184239.955000", "184240.955000", "184241.955000", "184242.955000", "184243.955000", "184244.955000", "184245.955000", "184246.955000", "184247.955000", "184248.955000", "184249.955000", "184250.955000", "184251.955000", "184252.955000", "184253.955000", "184254.955000", "184255.955000", "184256.955000", "184257.955000", "184258.955000", "184259.955000", "184300.955000", "184301.955000", "184302.955000", "184303.955000", "184304.955000", "184305.955000", "184306.955000", "184307.955000", "184308.955000", "184309.955000", "184310.955000", "184311.955000", "184312.955000", "184313.955000", "184314.955000", "184315.955000", "184316.955000", "184317.955000", "184318.955000", "184319.955000", "184320.955000", "184321.955000", "184322.955000", "184323.955000", "184324.955000", "184325.955000", "184326.955000", "184327.955000", "184328.955000", "184329.955000", "184330.955000", "184331.955000", "184332.955000", "184333.955000", "184334.955000", "184335.955000", "184336.955000", "184337.955000", "184338.955000", "184339.955000", "184340.955000", "184341.955000", "184342.955000", "184343.955000", "184344.955000", "184345.955000", "184346.955000", "184347.955000", "184348.955000", "184349.955000", "184350.955000", "184351.955000", "184352.955000", "184353.955000", "184354.955000", "184355.955000", "184356.955000", "184357.955000", "184358.955000", "184359.955000", "184400.955000", "184401.955000", "184402.955000", "184403.955000", "184404.955000", "184405.955000", "184406.955000", "184407.955000", "184408.955000", "184409.955000", "184410.955000", "184411.955000", "184412.955000", "184413.955000", "184414.955000", "184415.955000", "184416.955000", "184417.955000", "184418.955000", "184419.955000", "184420.955000", "184421.955000", "184422.955000", "184423.955000", "184424.955000", "184425.955000", "184426.955000", "184427.955000", "184428.955000", "184429.955000", "184430.955000", "184431.955000", "184432.955000", "184433.955000", "184434.955000", "184435.955000", "184436.955000", "184437.955000", "184438.955000", "184439.955000", "184440.955000", "184441.955000", "184442.955000", "184443.955000", "184444.955000", "184445.955000", "184446.955000", "184447.955000", "184448.955000", "184449.955000", "184450.955000", "184451.955000", "184452.955000", "184453.955000", "184454.955000", "184455.955000", "184456.955000", "184457.955000", "184458.955000", "184459.955000", "184500.955000", "184501.955000", "184502.955000", "184503.955000", "184504.955000", "184505.955000", "184506.955000", "184507.955000", "184508.955000", "184509.955000", "184510.955000", "184511.955000", "184512.955000", "184513.955000", "184514.955000", "184515.955000", "184516.955000", "184517.955000", "184518.955000", "184519.955000", "184520.955000", "184521.955000", "184522.955000", "184523.955000", "184524.955000", "184525.955000", "184526.955000", "184527.955000", "184528.955000", "184529.955000", "184530.955000", "184531.955000", "184532.955000", "184533.955000", "184534.955000", "184535.955000", "184536.955000", "184537.955000", "184538.955000", "184539.955000", "184540.955000", "184541.955000", "184542.955000", "184543.955000", "184544.955000", "184545.955000", "184546.955000", "184547.955000", "184548.955000", "184549.955000", "184550.955000", "184551.955000", "184552.955000", "184553.955000", "184554.955000", "184555.955000", "184556.955000", "184557.955000", "184558.955000", "184559.955000", "184600.955000", "184601.955000", "184602.955000", "184603.955000", "184604.955000", "184605.955000", "184606.955000", "184607.955000", "184608.955000", "184609.955000", "184610.955000", "184611.955000", "184612.955000", "184613.955000", "184614.955000", "184615.955000", "184616.955000", "184617.955000", "184618.955000", "184619.955000", "184620.955000", "184621.955000", "184622.955000", "184623.955000", "184624.955000", "184625.955000", "184626.955000", "184627.955000", "184628.955000", "184629.955000", "184630.955000", "184631.955000", "184632.955000", "184633.955000", "184634.955000", "184635.955000", "184636.955000", "184637.955000", "184638.955000", "184639.955000", "184640.955000", "184641.955000", "184642.955000", "184643.955000", "184644.955000", "184645.955000", "184646.955000", "184647.955000", "184648.955000", "184649.955000", "184650.955000", "184651.955000", "184652.955000", "184653.955000", "184654.955000", "184655.955000", "184656.955000", "184657.955000", "184658.955000", "184659.955000", "184700.955000", "184701.955000", "184702.955000", "184703.955000", "184704.955000", "184705.955000", "184706.955000", "184707.955000", "184708.955000", "184709.955000", "184710.955000", "184711.955000", "184712.955000", "184713.955000", "184714.955000", "184715.955000", "184716.955000", "184717.955000", "184718.955000", "184719.955000", "184720.955000", "184721.955000", "184722.955000", "184723.955000", "184724.955000", "184725.955000", "184726.955000", "184727.955000", "184728.955000", "184729.955000", "184730.955000", "184731.955000", "184732.955000", "184733.955000", "184734.955000", "184735.955000", "184736.955000", "184737.955000", "184738.955000", "184739.955000", "184740.955000", "184741.955000", "184742.955000", "184743.955000", "184744.955000", "184745.955000", "184746.955000", "184747.955000", "184748.955000", "184749.955000", "184750.955000", "184751.955000", "184752.955000", "184753.955000", "184754.955000", "184755.955000", "184756.955000", "184757.955000", "184758.955000", "184759.955000", "184800.955000", "184801.955000", "184802.955000", "184803.955000", "184804.955000", "184805.955000", "184806.955000", "184807.955000", "184808.955000"],
