{
  "AcquisitionMatrixPE": 96,
  "AcquisitionNumber": 1,
  "AcquisitionTime": "18:23:52.177500",
  "BandwidthPerPixelPhaseEncode": 18.939,
  "BaseResolution": 96,
  "BodyPartExamined": "BRAIN",
  "ConsistencyInfo": "N4_VE11C_LATEST_20160120",
  "ConversionSoftware": "dcm2niix",
  "ConversionSoftwareVersion": "v1.0.20190902",
  "DerivedVendorReportedEchoSpacing": 0.000550011,
  "DeviceSerialNumber": "66112",
  "DwellTime": 2.2e-06,
  "EchoTime": 0.033,
  "EchoTrainLength": 96,
  "EffectiveEchoSpacing": 0.000550011,
  "FlipAngle": 59,
  "ImageOrientationPatientDICOM": [0.999111, 0.0399387, 0.0135113, -0.0415258, 0.987604, 0.151377],
  "ImageType": [
    "ORIGINAL",
    "PRIMARY",
    "FMRI",
    "NONE",
    "ND",
    "NORM",
    "MOSAIC"
],
  "ImagingFrequency": 123.252,
  "InPlanePhaseEncodingDirectionDICOM": "COL",
  "InstitutionAddress": "Maynard_3_Hanover_NH_US_03755",
  "InstitutionName": "Dartmouth_College_-_PBS",
  "InstitutionalDepartmentName": "Department",
  "MRAcquisitionType": "2D",
  "MagneticFieldStrength": 3,
  "Manufacturer": "Siemens",
  "ManufacturersModelName": "Prisma",
  "Modality": "MR",
  "MultibandAccelerationFactor": 4,
  "PartialFourier": 1,
  "PatientPosition": "HFS",
  "PercentPhaseFOV": 100,
  "PhaseEncodingDirection": "j-",
  "PhaseEncodingSteps": 96,
  "PhaseResolution": 1,
  "PixelBandwidth": 2365,
  "ProcedureStepDescription": "Gobbini_Matteo_1037_budapest",
  "ProtocolName": "func_run-04_task-movie",
  "PulseSequenceDetails": "%SiemensSeq%_ep2d_bold",
  "ReceiveCoilActiveElements": "HEA;HEP",
  "ReceiveCoilName": "Head_32",
  "ReconMatrixPE": 96,
  "RefLinesPE": 12,
  "RepetitionTime": 1,
  "SAR": 0.0528007,
  "ScanOptions": "FS",
  "ScanningSequence": "EP",
  "SequenceName": "_epfid2d1_96",
  "SequenceVariant": "SK",
  "SeriesDescription": "func_run-04_task-movie",
  "SeriesNumber": 29,
  "ShimSetting": [4132, -7721, -7294, 540, -4, -215, 22, 77],
  "SliceThickness": 2.5,
  "SliceTiming": [0.735, 0, 0.49, 0.08, 0.57, 0.1625, 0.6525, 0.325, 0.815, 0.4075, 0.8975, 0.245, 0.735, 0, 0.49, 0.08, 0.57, 0.1625, 0.6525, 0.325, 0.815, 0.4075, 0.8975, 0.245, 0.735, 0, 0.49, 0.08, 0.57, 0.1625, 0.6525, 0.325, 0.815, 0.4075, 0.8975, 0.245, 0.735, 0, 0.49, 0.08, 0.57, 0.1625, 0.6525, 0.325, 0.815, 0.4075, 0.8975, 0.245],
  "SoftwareVersions": "syngo_MR_E11",
  "SpacingBetweenSlices": 2.5,
  "StationName": "AWP66112",
  "TaskName": "movie",
  "TotalReadoutTime": 0.0522511,
  "TxRefAmp": 255.721,
  "dcmmeta_affine": [
    [-2.497776985168457, -0.10381443798542023, 0.018244992941617966, 127.28705596923828],
    [-0.09984663873910904, 2.4690089225769043, 0.37950775027275085, -107.25621795654297],
    [0.033778171986341476, -0.37844160199165344, 2.470959424972534, -51.45216751098633],
    [0.0, 0.0, 0.0, 1.0]
],
  "dcmmeta_reorient_transform": [
    [0.0, -1.0, 0.0, 95.0],
    [1.0, 0.0, 0.0, 0.0],
    [0.0, 0.0, 1.0, 0.0],
    [0.0, 0.0, 0.0, 1.0]
],
  "dcmmeta_shape": [96, 96, 48, 618],
  "dcmmeta_slice_dim": 2,
  "dcmmeta_version": 0.6,
  "global": {
    "const": {
      "AccessionNumber": "A001174",
      "AcquisitionMatrix": [96, 0, 0, 96],
      "AngioFlag": "N",
      "BitsAllocated": 16,
      "BitsStored": 12,
      "BodyPartExamined": "BRAIN",
      "Columns": 672,
      "EchoNumbers": 1,
      "EchoTime": 33.0,
      "EchoTrainLength": 96,
      "FlipAngle": 59.0,
      "HighBit": 11,
      "ImageOrientationPatient": [0.99911077931987, 0.03993865632632, 0.01351126854521, -0.0415257737724, 0.98760352557341, 0.15137663752239],
      "ImagePositionPatient": [-806.8858850123, -867.12999327589, -206.12341006651],
      "ImageType": [
        "ORIGINAL",
        "PRIMARY",
        "FMRI",
        "NONE",
        "ND",
        "NORM",
        "MOSAIC"
],
      "ImagedNucleus": "1H",
      "ImagingFrequency": 123.252299,
      "InPlanePhaseEncodingDirection": "COL",
      "MRAcquisitionType": "2D",
      "MagneticFieldStrength": 3.0,
      "Manufacturer": "SIEMENS",
      "ManufacturerModelName": "Prisma",
      "Modality": "MR",
      "NumberOfAverages": 1.0,
      "NumberOfPhaseEncodingSteps": 96,
      "PercentPhaseFieldOfView": 100.0,
      "PercentSampling": 100.0,
      "PerformedProcedureStepStartTime": "174426.543000",
      "PhotometricInterpretation": "MONOCHROME2",
      "PixelBandwidth": 2365.0,
      "PixelRepresentation": 0,
      "PixelSpacing": [2.5, 2.5],
      "ProtocolName": "func_run-04_task-movie",
      "RepetitionTime": 1000.0,
      "Rows": 672,
      "SAR": 0.05280068775187,
      "SamplesPerPixel": 1,
      "ScanOptions": "FS",
      "ScanningSequence": "EP",
      "SequenceName": "*epfid2d1_96",
      "SequenceVariant": "SK",
      "SeriesDescription": "func_run-04_task-movie",
      "SeriesNumber": 29,
      "SeriesTime": "182353.926000",
      "SliceLocation": -66.20737323768,
      "SliceThickness": 2.5,
      "SmallestImagePixelValue": 0,
      "SoftwareVersions": "syngo MR E11",
      "SpacingBetweenSlices": 2.4999999935506,
      "SpecificCharacterSet": "ISO_IR 100",
      "StudyID": "1",
      "StudyTime": "174426.481000",
      "TransmitCoilName": "Body",
      "VariableFlipAngleFlag": "N",
      "WindowCenterWidthExplanation": "Algo1",
      "dBdt": 0.0},
    "slices": {}
  },
  "time": {
    "samples": {
      "AcquisitionNumber": [1, 2, 3, 4, 5, 6, 7, 8, 9, 10, 11, 12, 13, 14, 15, 16, 17, 18, 19, 20, 21, 22, 23, 24, 25, 26, 27, 28, 29, 30, 31, 32, 33, 34, 35, 36, 37, 38, 39, 40, 41, 42, 43, 44, 45, 46, 47, 48, 49, 50, 51, 52, 53, 54, 55, 56, 57, 58, 59, 60, 61, 62, 63, 64, 65, 66, 67, 68, 69, 70, 71, 72, 73, 74, 75, 76, 77, 78, 79, 80, 81, 82, 83, 84, 85, 86, 87, 88, 89, 90, 91, 92, 93, 94, 95, 96, 97, 98, 99, 100, 101, 102, 103, 104, 105, 106, 107, 108, 109, 110, 111, 112, 113, 114, 115, 116, 117, 118, 119, 120, 121, 122, 123, 124, 125, 126, 127, 128, 129, 130, 131, 132, 133, 134, 135, 136, 137, 138, 139, 140, 141, 142, 143, 144, 145, 146, 147, 148, 149, 150, 151, 152, 153, 154, 155, 156, 157, 158, 159, 160, 161, 162, 163, 164, 165, 166, 167, 168, 169, 170, 171, 172, 173, 174, 175, 176, 177, 178, 179, 180, 181, 182, 183, 184, 185, 186, 187, 188, 189, 190, 191, 192, 193, 194, 195, 196, 197, 198, 199, 200, 201, 202, 203, 204, 205, 206, 207, 208, 209, 210, 211, 212, 213, 214, 215, 216, 217, 218, 219, 220, 221, 222, 223, 224, 225, 226, 227, 228, 229, 230, 231, 232, 233, 234, 235, 236, 237, 238, 239, 240, 241, 242, 243, 244, 245, 246, 247, 248, 249, 250, 251, 252, 253, 254, 255, 256, 257, 258, 259, 260, 261, 262, 263, 264, 265, 266, 267, 268, 269, 270, 271, 272, 273, 274, 275, 276, 277, 278, 279, 280, 281, 282, 283, 284, 285, 286, 287, 288, 289, 290, 291, 292, 293, 294, 295, 296, 297, 298, 299, 300, 301, 302, 303, 304, 305, 306, 307, 308, 309, 310, 311, 312, 313, 314, 315, 316, 317, 318, 319, 320, 321, 322, 323, 324, 325, 326, 327, 328, 329, 330, 331, 332, 333, 334, 335, 336, 337, 338, 339, 340, 341, 342, 343, 344, 345, 346, 347, 348, 349, 350, 351, 352, 353, 354, 355, 356, 357, 358, 359, 360, 361, 362, 363, 364, 365, 366, 367, 368, 369, 370, 371, 372, 373, 374, 375, 376, 377, 378, 379, 380, 381, 382, 383, 384, 385, 386, 387, 388, 389, 390, 391, 392, 393, 394, 395, 396, 397, 398, 399, 400, 401, 402, 403, 404, 405, 406, 407, 408, 409, 410, 411, 412, 413, 414, 415, 416, 417, 418, 419, 420, 421, 422, 423, 424, 425, 426, 427, 428, 429, 430, 431, 432, 433, 434, 435, 436, 437, 438, 439, 440, 441, 442, 443, 444, 445, 446, 447, 448, 449, 450, 451, 452, 453, 454, 455, 456, 457, 458, 459, 460, 461, 462, 463, 464, 465, 466, 467, 468, 469, 470, 471, 472, 473, 474, 475, 476, 477, 478, 479, 480, 481, 482, 483, 484, 485, 486, 487, 488, 489, 490, 491, 492, 493, 494, 495, 496, 497, 498, 499, 500, 501, 502, 503, 504, 505, 506, 507, 508, 509, 510, 511, 512, 513, 514, 515, 516, 517, 518, 519, 520, 521, 522, 523, 524, 525, 526, 527, 528, 529, 530, 531, 532, 533, 534, 535, 536, 537, 538, 539, 540, 541, 542, 543, 544, 545, 546, 547, 548, 549, 550, 551, 552, 553, 554, 555, 556, 557, 558, 559, 560, 561, 562, 563, 564, 565, 566, 567, 568, 569, 570, 571, 572, 573, 574, 575, 576, 577, 578, 579, 580, 581, 582, 583, 584, 585, 586, 587, 588, 589, 590, 591, 592, 593, 594, 595, 596, 597, 598, 599, 600, 601, 602, 603, 604, 605, 606, 607, 608, 609, 610, 611, 612, 613, 614, 615, 616, 617, 618],
      "AcquisitionTime": ["182352.177500", "182353.177500", "182354.177500", "182355.177500", "182356.177500", "182357.177500", "182358.177500", "182359.177500", "182400.177500", "182401.177500", "182402.177500", "182403.177500", "182404.177500", "182405.177500", "182406.177500", "182407.177500", "182408.177500", "182409.177500", "182410.177500", "182411.177500", "182412.177500", "182413.177500", "182414.177500", "182415.177500", "182416.177500", "182417.177500", "182418.177500", "182419.177500", "182420.177500", "182421.177500", "182422.177500", "182423.177500", "182424.177500", "182425.177500", "182426.177500", "182427.177500", "182428.177500", "182429.177500", "182430.177500", "182431.177500", "182432.177500", "182433.177500", "182434.177500", "182435.177500", "182436.177500", "182437.177500", "182438.177500", "182439.177500", "182440.177500", "182441.177500", "182442.177500", "182443.177500", "182444.177500", "182445.177500", "182446.177500", "182447.177500", "182448.177500", "182449.177500", "182450.177500", "182451.177500", "182452.177500", "182453.177500", "182454.177500", "182455.177500", "182456.177500", "182457.177500", "182458.177500", "182459.177500", "182500.177500", "182501.177500", "182502.177500", "182503.177500", "182504.177500", "182505.177500", "182506.177500", "182507.177500", "182508.177500", "182509.177500", "182510.177500", "182511.177500", "182512.177500", "182513.177500", "182514.177500", "182515.177500", "182516.177500", "182517.177500", "182518.177500", "182519.177500", "182520.177500", "182521.177500", "182522.177500", "182523.177500", "182524.177500", "182525.177500", "182526.177500", "182527.177500", "182528.177500", "182529.177500", "182530.177500", "182531.177500", "182532.177500", "182533.177500", "182534.177500", "182535.177500", "182536.177500", "182537.177500", "182538.177500", "182539.177500", "182540.177500", "182541.177500", "182542.177500", "182543.177500", "182544.177500", "182545.177500", "182546.177500", "182547.177500", "182548.177500", "182549.177500", "182550.177500", "182551.177500", "182552.177500", "182553.177500", "182554.177500", "182555.177500", "182556.177500", "182557.177500", "182558.177500", "182559.177500", "182600.177500", "182601.177500", "182602.177500", "182603.177500", "182604.177500", "182605.177500", "182606.177500", "182607.177500", "182608.177500", "182609.177500", "182610.177500", "182611.177500", "182612.177500", "182613.177500", "182614.177500", "182615.177500", "182616.177500", "182617.177500", "182618.177500", "182619.177500", "182620.177500", "182621.177500", "182622.177500", "182623.177500", "182624.177500", "182625.177500", "182626.177500", "182627.177500", "182628.177500", "182629.177500", "182630.177500", "182631.177500", "182632.177500", "182633.177500", "182634.177500", "182635.177500", "182636.177500", "182637.177500", "182638.177500", "182639.177500", "182640.177500", "182641.177500", "182642.177500", "182643.177500", "182644.177500", "182645.177500", "182646.177500", "182647.177500", "182648.177500", "182649.177500", "182650.177500", "182651.177500", "182652.177500", "182653.177500", "182654.177500", "182655.177500", "182656.177500", "182657.177500", "182658.177500", "182659.177500", "182700.177500", "182701.177500", "182702.177500", "182703.177500", "182704.177500", "182705.177500", "182706.177500", "182707.177500", "182708.177500", "182709.177500", "182710.177500", "182711.177500", "182712.177500", "182713.177500", "182714.177500", "182715.177500", "182716.177500", "182717.177500", "182718.177500", "182719.177500", "182720.177500", "182721.177500", "182722.177500", "182723.177500", "182724.177500", "182725.177500", "182726.177500", "182727.177500", "182728.177500", "182729.177500", "182730.177500", "182731.177500", "182732.177500", "182733.177500", "182734.177500", "182735.177500", "182736.177500", "182737.177500", "182738.177500", "182739.177500", "182740.177500", "182741.177500", "182742.177500", "182743.177500", "182744.177500", "182745.177500", "182746.177500", "182747.177500", "182748.177500", "182749.177500", "182750.177500", "182751.177500", "182752.177500", "182753.177500", "182754.177500", "182755.177500", "182756.177500", "182757.177500", "182758.177500", "182759.177500", "182800.177500", "182801.177500", "182802.177500", "182803.177500", "182804.177500", "182805.177500", "182806.177500", "182807.177500", "182808.177500", "182809.177500", "182810.177500", "182811.177500", "182812.177500", "182813.177500", "182814.177500", "182815.177500", "182816.177500", "182817.177500", "182818.177500", "182819.177500", "182820.177500", "182821.177500", "182822.177500", "182823.177500", "182824.177500", "182825.177500", "182826.177500", "182827.177500", "182828.177500", "182829.177500", "182830.177500", "182831.177500", "182832.177500", "182833.177500", "182834.177500", "182835.177500", "182836.177500", "182837.177500", "182838.177500", "182839.177500", "182840.177500", "182841.177500", "182842.177500", "182843.177500", "182844.177500", "182845.177500", "182846.177500", "182847.177500", "182848.177500", "182849.177500", "182850.177500", "182851.177500", "182852.177500", "182853.177500", "182854.177500", "182855.177500", "182856.177500", "182857.177500", "182858.177500", "182859.177500", "182900.177500", "182901.177500", "182902.177500", "182903.177500", "182904.177500", "182905.177500", "182906.177500", "182907.177500", "182908.177500", "182909.177500", "182910.177500", "182911.177500", "182912.177500", "182913.177500", "182914.177500", "182915.177500", "182916.177500", "182917.177500", "182918.177500", "182919.177500", "182920.177500", "182921.177500", "182922.177500", "182923.177500", "182924.177500", "182925.177500", "182926.177500", "182927.177500", "182928.177500", "182929.177500", "182930.177500", "182931.177500", "182932.177500", "182933.177500", "182934.177500", "182935.177500", "182936.177500", "182937.177500", "182938.177500", "182939.177500", "182940.177500", "182941.177500", "182942.177500", "182943.177500", "182944.177500", "182945.177500", "182946.177500", "182947.177500", "182948.177500", "182949.177500", "182950.177500", "182951.177500", "182952.177500", "182953.177500", "182954.177500", "182955.177500", "182956.177500", "182957.177500", "182958.177500", "182959.177500", "183000.177500", "183001.177500", "183002.177500", "183003.177500", "183004.177500", "183005.177500", "183006.177500", "183007.177500", "183008.177500", "183009.177500", "183010.177500", "183011.177500", "183012.177500", "183013.177500", "183014.177500", "183015.177500", "183016.177500", "183017.177500", "183018.177500", "183019.177500", "183020.177500", "183021.177500", "183022.177500", "183023.177500", "183024.177500", "183025.177500", "183026.177500", "183027.177500", "183028.177500", "183029.177500", "183030.177500", "183031.177500", "183032.177500", "183033.177500", "183034.177500", "183035.177500", "183036.177500", "183037.177500", "183038.177500", "183039.177500", "183040.177500", "183041.177500", "183042.177500", "183043.177500", "183044.177500", "183045.177500", "183046.177500", "183047.177500", "183048.177500", "183049.177500", "183050.177500", "183051.177500", "183052.177500", "183053.177500", "183054.177500", "183055.177500", "183056.177500", "183057.177500", "183058.177500", "183059.177500", "183100.177500", "183101.177500", "183102.177500", "183103.177500", "183104.177500", "183105.177500", "183106.177500", "183107.177500", "183108.177500", "183109.177500", "183110.177500", "183111.177500", "183112.177500", "183113.177500", "183114.177500", "183115.177500", "183116.177500", "183117.177500", "183118.177500", "183119.177500", "183120.177500", "183121.177500", "183122.177500", "183123.177500", "183124.177500", "183125.177500", "183126.177500", "183127.177500", "183128.177500", "183129.177500", "183130.177500", "183131.177500", "183132.177500", "183133.177500", "183134.177500", "183135.177500", "183136.177500", "183137.177500", "183138.177500", "183139.177500", "183140.177500", "183141.177500", "183142.177500", "183143.177500", "183144.177500", "183145.177500", "183146.177500", "183147.177500", "183148.177500", "183149.177500", "183150.177500", "183151.177500", "183152.177500", "183153.177500", "183154.177500", "183155.177500", "183156.177500", "183157.177500", "183158.177500", "183159.177500", "183200.177500", "183201.177500", "183202.177500", "183203.177500", "183204.177500", "183205.177500", "183206.177500", "183207.177500", "183208.177500", "183209.177500", "183210.177500", "183211.177500", "183212.177500", "183213.177500", "183214.177500", "183215.177500", "183216.177500", "183217.177500", "183218.177500", "183219.177500", "183220.177500", "183221.177500", "183222.177500", "183223.177500", "183224.177500", "183225.177500", "183226.177500", "183227.177500", "183228.177500", "183229.177500", "183230.177500", "183231.177500", "183232.177500", "183233.177500", "183234.177500", "183235.177500", "183236.177500", "183237.177500", "183238.177500", "183239.177500", "183240.177500", "183241.177500", "183242.177500", "183243.177500", "183244.177500", "183245.177500", "183246.177500", "183247.177500", "183248.177500", "183249.177500", "183250.177500", "183251.177500", "183252.177500", "183253.177500", "183254.177500", "183255.177500", "183256.177500", "183257.177500", "183258.177500", "183259.177500", "183300.177500", "183301.177500", "183302.177500", "183303.177500", "183304.177500", "183305.177500", "183306.177500", "183307.177500", "183308.177500", "183309.177500", "183310.177500", "183311.177500", "183312.177500", "183313.177500", "183314.177500", "183315.177500", "183316.177500", "183317.177500", "183318.177500", "183319.177500", "183320.177500", "183321.177500", "183322.177500", "183323.177500", "183324.177500", "183325.177500", "183326.177500", "183327.177500", "183328.177500", "183329.177500", "183330.177500", "183331.177500", "183332.177500", "183333.177500", "183334.177500", "183335.177500", "183336.177500", "183337.177500", "183338.177500", "183339.177500", "183340.177500", "183341.177500", "183342.177500", "183343.177500", "183344.177500", "183345.177500", "183346.177500", "183347.177500", "183348.177500", "183349.177500", "183350.177500", "183351.177500", "183352.177500", "183353.177500", "183354.177500", "183355.177500", "183356.177500", "183357.177500", "183358.177500", "183359.177500", "183400.177500", "183401.177500", "183402.177500", "183403.177500", "183404.177500", "183405.177500", "183406.177500", "183407.177500", "183408.177500", "183409.177500"],
      "ContentTime": ["182353.929000", "182354.773000", "182355.754000", "182356.772000", "182357.757000", "182358.760000", "182359.766000", "182400.820000", "182401.767000", "182402.764000", "182403.743000", "182404.740000", "182405.750000", "182406.746000", "182407.763000", "182408.765000", "182409.737000", "182410.755000", "182411.778000", "182412.772000", "182413.740000", "182414.738000", "182415.808000", "182416.726000", "182417.743000", "182418.743000", "182419.791000", "182420.760000", "182421.773000", "182422.755000", "182423.761000", "182424.771000", "182425.756000", "182426.746000", "182427.746000", "182428.734000", "182429.765000", "182430.775000", "182431.760000", "182432.778000", "182433.742000", "182434.744000", "182435.776000", "182436.749000", "182437.743000", "182438.751000", "182439.779000", "182440.744000", "182441.743000", "182442.796000", "182443.734000", "182444.763000", "182445.809000", "182446.739000", "182447.731000", "182448.744000", "182449.771000", "182450.740000", "182451.754000", "182452.736000", "182453.732000", "182454.775000", "182455.780000", "182456.750000", "182457.799000", "182458.775000", "182459.820000", "182500.767000", "182501.766000", "182502.750000", "182503.763000", "182504.760000", "182505.775000", "182506.786000", "182507.763000", "182508.721000", "182509.735000", "182510.731000", "182511.745000", "182512.759000", "182513.754000", "182514.744000", "182515.740000", "182516.743000", "182517.747000", "182518.756000", "182519.738000", "182520.759000", "182521.745000", "182522.742000", "182523.772000", "182524.751000", "182525.745000", "182526.754000", "182527.744000", "182528.775000", "182529.745000", "182530.742000", "182531.727000", "182532.744000", "182533.750000", "182534.763000", "182535.762000", "182536.762000", "182537.764000", "182538.766000", "182539.782000", "182540.734000", "182541.766000", "182542.765000", "182543.763000", "182544.768000", "182545.766000", "182546.738000", "182547.751000", "182548.757000", "182549.720000", "182550.744000", "182551.744000", "182552.757000", "182553.789000", "182554.751000", "182555.771000", "182556.755000", "182557.759000", "182558.761000", "182559.765000", "182600.777000", "182601.746000", "182602.740000", "182603.797000", "182604.756000", "182605.738000", "182606.815000", "182607.760000", "182608.746000", "182609.756000", "182610.761000", "182611.759000", "182612.751000", "182613.749000", "182614.755000", "182615.743000", "182616.748000", "182617.785000", "182618.781000", "182619.728000", "182620.773000", "182621.758000", "182622.758000", "182623.758000", "182624.724000", "182625.825000", "182626.790000", "182627.745000", "182628.764000", "182629.726000", "182630.734000", "182631.759000", "182632.730000", "182633.806000", "182634.761000", "182635.767000", "182636.716000", "182637.755000", "182638.746000", "182639.745000", "182640.756000", "182641.776000", "182642.765000", "182643.799000", "182644.771000", "182645.730000", "182646.745000", "182647.772000", "182648.731000", "182649.733000", "182650.753000", "182651.752000", "182652.755000", "182653.766000", "182654.764000", "182655.746000", "182656.768000", "182657.800000", "182658.768000", "182659.760000", "182700.762000", "182701.742000", "182702.751000", "182703.756000", "182704.735000", "182705.740000", "182706.756000", "182707.752000", "182708.750000", "182709.749000", "182710.753000", "182711.763000", "182712.745000", "182713.763000", "182714.748000", "182715.774000", "182716.774000", "182717.739000", "182718.758000", "182719.729000", "182720.742000", "182721.740000", "182722.763000", "182723.753000", "182724.758000", "182725.792000", "182726.757000", "182727.774000", "182728.762000", "182729.739000", "182730.860000", "182731.757000", "182732.743000", "182733.795000", "182734.743000", "182735.774000", "182736.753000", "182737.741000", "182738.755000", "182739.791000", "182740.752000", "182741.761000", "182742.760000", "182743.766000", "182744.766000", "182745.756000", "182746.749000", "182747.782000", "182748.782000", "182749.794000", "182750.777000", "182751.781000", "182752.768000", "182753.774000", "182754.761000", "182755.814000", "182756.772000", "182757.765000", "182758.764000", "182759.766000", "182800.819000", "182801.782000", "182802.774000", "182803.783000", "182804.770000", "182805.781000", "182806.803000", "182807.785000", "182808.758000", "182809.767000", "182810.763000", "182811.772000", "182812.745000", "182813.783000", "182814.743000", "182815.754000", "182816.749000", "182817.758000", "182818.753000", "182819.766000", "182820.760000", "182821.749000", "182822.749000", "182823.767000", "182824.769000", "182825.780000", "182826.765000", "182827.753000", "182828.741000", "182829.729000", "182830.762000", "182831.750000", "182832.744000", "182833.777000", "182834.749000", "182835.780000", "182836.754000", "182837.735000", "182838.757000", "182839.742000", "182840.748000", "182841.757000", "182842.737000", "182843.778000", "182844.753000", "182845.778000", "182846.753000", "182847.769000", "182848.738000", "182849.750000", "182850.741000", "182851.753000", "182852.756000", "182853.777000", "182854.739000", "182855.768000", "182856.757000", "182857.775000", "182858.759000", "182859.738000", "182900.728000", "182901.762000", "182902.788000", "182903.743000", "182904.762000", "182905.756000", "182906.732000", "182907.760000", "182908.754000", "182909.775000", "182910.739000", "182911.750000", "182912.749000", "182913.767000", "182914.781000", "182915.756000", "182916.745000", "182917.736000", "182918.730000", "182919.812000", "182920.755000", "182921.767000", "182922.766000", "182923.722000", "182924.753000", "182925.767000", "182926.754000", "182927.762000", "182928.742000", "182929.734000", "182930.829000", "182931.763000", "182932.750000", "182933.775000", "182934.861000", "182935.808000", "182936.758000", "182937.760000", "182938.781000", "182939.789000", "182940.837000", "182941.751000", "182942.759000", "182943.762000", "182944.771000", "182945.803000", "182946.773000", "182947.771000", "182948.783000", "182949.758000", "182950.755000", "182951.753000", "182952.834000", "182953.768000", "182954.759000", "182955.759000", "182956.749000", "182957.750000", "182958.743000", "182959.761000", "183000.783000", "183001.760000", "183002.768000", "183003.757000", "183004.804000", "183005.759000", "183006.775000", "183007.768000", "183008.820000", "183009.727000", "183010.752000", "183011.768000", "183012.784000", "183013.738000", "183014.758000", "183015.765000", "183016.752000", "183017.747000", "183018.760000", "183019.771000", "183020.742000", "183021.799000", "183022.743000", "183023.734000", "183024.743000", "183025.812000", "183026.756000", "183027.740000", "183028.781000", "183029.763000", "183030.761000", "183031.745000", "183032.740000", "183033.751000", "183034.741000", "183035.750000", "183036.757000", "183037.770000", "183038.744000", "183039.739000", "183040.760000", "183041.747000", "183042.752000", "183043.756000", "183044.753000", "183045.741000", "183046.747000", "183047.740000", "183048.756000", "183049.748000", "183050.743000", "183051.738000", "183052.757000", "183053.745000", "183054.746000", "183055.759000", "183056.740000", "183057.758000", "183058.759000", "183059.737000", "183100.736000", "183101.753000", "183102.766000", "183103.774000", "183104.757000", "183105.754000", "183106.743000", "183107.753000", "183108.827000", "183109.804000", "183110.783000", "183111.760000", "183112.756000", "183113.751000", "183114.763000", "183115.756000", "183116.750000", "183117.726000", "183118.751000", "183119.762000", "183120.739000", "183121.717000", "183122.747000", "183123.790000", "183124.749000", "183125.790000", "183126.768000", "183127.742000", "183128.752000", "183129.783000", "183130.755000", "183131.780000", "183132.752000", "183133.759000", "183134.819000", "183135.763000", "183136.764000", "183137.764000", "183138.768000", "183139.783000", "183140.756000", "183141.776000", "183142.788000", "183143.750000", "183144.744000", "183145.720000", "183146.747000", "183147.755000", "183148.763000", "183149.804000", "183150.760000", "183151.736000", "183152.750000", "183153.744000", "183154.755000", "183155.721000", "183156.752000", "183157.819000", "183158.766000", "183159.781000", "183200.822000", "183201.773000", "183202.789000", "183203.755000", "183204.748000", "183205.737000", "183206.759000", "183207.779000", "183208.745000", "183209.748000", "183210.753000", "183211.744000", "183212.744000", "183213.731000", "183214.749000", "183215.735000", "183216.753000", "183217.728000", "183218.733000", "183219.751000", "183220.744000", "183221.743000", "183222.748000", "183223.749000", "183224.756000", "183225.761000", "183226.780000", "183227.736000", "183228.749000", "183229.735000", "183230.743000", "183231.747000", "183232.756000", "183233.718000", "183234.788000", "183235.748000", "183236.764000", "183237.749000", "183238.744000", "183239.743000", "183240.761000", "183241.763000", "183242.739000", "183243.737000", "183244.752000", "183245.764000", "183246.730000", "183247.758000", "183248.743000", "183249.748000", "183250.760000", "183251.750000", "183252.759000", "183253.760000", "183254.746000", "183255.754000", "183256.755000", "183257.748000", "183258.765000", "183259.725000", "183300.751000", "183301.763000", "183302.752000", "183303.749000", "183304.804000", "183305.759000", "183306.736000", "183307.775000", "183308.736000", "183309.809000", "183310.744000", "183311.747000", "183312.730000", "183313.747000", "183314.742000", "183315.737000", "183316.736000", "183317.752000", "183318.774000", "183319.747000", "183320.743000", "183321.744000", "183322.749000", "183323.735000", "183324.714000", "183325.741000", "183326.738000", "183327.741000", "183328.794000", "183329.729000", "183330.749000", "183331.756000", "183332.737000", "183333.716000", "183334.739000", "183335.745000", "183336.740000", "183337.741000", "183338.739000", "183339.742000", "183340.763000", "183341.736000", "183342.754000", "183343.739000", "183344.770000", "183345.747000", "183346.734000", "183347.762000", "183348.753000", "183349.762000", "183350.724000", "183351.746000", "183352.746000", "183353.786000", "183354.811000", "183355.779000", "183356.801000", "183357.780000", "183358.756000", "183359.751000", "183400.772000", "183401.767000", "183402.767000", "183403.760000", "183404.786000", "183405.747000", "183406.793000", "183407.738000", "183408.743000", "183409.759000", "183410.791000"],
