{
  "AcquisitionMatrixPE": 96,
  "AcquisitionNumber": 1,
  "AcquisitionTime": "18:38:41.630000",
  "BandwidthPerPixelPhaseEncode": 18.939,
  "BaseResolution": 96,
  "BodyPartExamined": "BRAIN",
  "ConsistencyInfo": "N4_VE11C_LATEST_20160120",
  "ConversionSoftware": "dcm2niix",
  "ConversionSoftwareVersion": "v1.0.20190902",
  "DerivedVendorReportedEchoSpacing": 0.000550011,
  "DeviceSerialNumber": "66112",
  "DwellTime": 2.2e-06,
  "EchoTime": 0.033,
  "EchoTrainLength": 96,
  "EffectiveEchoSpacing": 0.000550011,
  "FlipAngle": 59,
  "ImageOrientationPatientDICOM": [0.999399, 0.0245638, 0.024467, -0.027043, 0.993916, 0.106772],
  "ImageType": [
    "ORIGINAL",
    "PRIMARY",
    "FMRI",
    "NONE",
    "ND",
    "NORM",
    "MOSAIC"
],
  "ImagingFrequency": 123.252,
  "InPlanePhaseEncodingDirectionDICOM": "COL",
  "InstitutionAddress": "Maynard_3_Hanover_NH_US_03755",
  "InstitutionName": "Dartmouth_College_-_PBS",
  "InstitutionalDepartmentName": "Department",
  "MRAcquisitionType": "2D",
  "MagneticFieldStrength": 3,
  "Manufacturer": "Siemens",
  "ManufacturersModelName": "Prisma",
  "Modality": "MR",
  "MultibandAccelerationFactor": 4,
  "PartialFourier": 1,
  "PatientPosition": "HFS",
  "PercentPhaseFOV": 100,
  "PhaseEncodingDirection": "j-",
  "PhaseEncodingSteps": 96,
  "PhaseResolution": 1,
  "PixelBandwidth": 2365,
  "ProcedureStepDescription": "Gobbini_Matteo_1037_budapest",
  "ProtocolName": "func_run-03_task-movie",
  "PulseSequenceDetails": "%SiemensSeq%_ep2d_bold",
  "ReceiveCoilActiveElements": "HEA;HEP",
  "ReceiveCoilName": "Head_32",
  "ReconMatrixPE": 96,
  "RefLinesPE": 12,
  "RepetitionTime": 1,
  "SAR": 0.0544401,
  "ScanOptions": "FS",
  "ScanningSequence": "EP",
  "SequenceName": "_epfid2d1_96",
  "SequenceVariant": "SK",
  "SeriesDescription": "func_run-03_task-movie",
  "SeriesNumber": 22,
  "ShimSetting": [4134, -7750, -7292, 548, -120, -118, 12, 93],
  "SliceThickness": 2.5,
  "SliceTiming": [0.735, 0, 0.49, 0.0825, 0.5725, 0.1625, 0.6525, 0.3275, 0.8175, 0.4075, 0.8975, 0.245, 0.735, 0, 0.49, 0.0825, 0.5725, 0.1625, 0.6525, 0.3275, 0.8175, 0.4075, 0.8975, 0.245, 0.735, 0, 0.49, 0.0825, 0.5725, 0.1625, 0.6525, 0.3275, 0.8175, 0.4075, 0.8975, 0.245, 0.735, 0, 0.49, 0.0825, 0.5725, 0.1625, 0.6525, 0.3275, 0.8175, 0.4075, 0.8975, 0.245],
  "SoftwareVersions": "syngo_MR_E11",
  "SpacingBetweenSlices": 2.5,
  "StationName": "AWP66112",
  "TaskName": "movie",
  "TotalReadoutTime": 0.0522511,
  "TxRefAmp": 240.324,
  "dcmmeta_affine": [
    [-2.4984970092773438, -0.06760742515325546, 0.054238494485616684, 125.6183853149414],
    [-0.06140945851802826, 2.4847893714904785, 0.2684229612350464, -99.47798156738281],
    [0.06116744503378868, -0.2669292986392975, 2.4849562644958496, -59.72005844116211],
    [0.0, 0.0, 0.0, 1.0]
],
  "dcmmeta_reorient_transform": [
    [0.0, -1.0, 0.0, 95.0],
    [1.0, 0.0, 0.0, 0.0],
    [0.0, 0.0, 1.0, 0.0],
    [0.0, 0.0, 0.0, 1.0]
],
  "dcmmeta_shape": [96, 96, 48, 535],
  "dcmmeta_slice_dim": 2,
  "dcmmeta_version": 0.6,
  "global": {
    "const": {
      "AccessionNumber": "A001586",
      "AcquisitionMatrix": [96, 0, 0, 96],
      "AngioFlag": "N",
      "BitsAllocated": 16,
      "BitsStored": 12,
      "BodyPartExamined": "BRAIN",
      "Columns": 672,
      "EchoNumbers": 1,
      "EchoTime": 33.0,
      "EchoTrainLength": 96,
      "FlipAngle": 59.0,
      "HighBit": 11,
      "ImageOrientationPatient": [0.99939881303735, 0.02456378358673, 0.02446697846982, -0.0270429701125, 0.99391572975592, 0.10677171868642],
      "ImagePositionPatient": [-819.29188518012, -869.88225585321, -179.57020226651],
      "ImageType": [
        "ORIGINAL",
        "PRIMARY",
        "FMRI",
        "NONE",
        "ND",
        "NORM",
        "MOSAIC"
],
      "ImagedNucleus": "1H",
      "ImagingFrequency": 123.252316,
      "InPlanePhaseEncodingDirection": "COL",
      "MRAcquisitionType": "2D",
      "MagneticFieldStrength": 3.0,
      "Manufacturer": "SIEMENS",
      "ManufacturerModelName": "Prisma",
      "Modality": "MR",
      "NumberOfAverages": 1.0,
      "NumberOfPhaseEncodingSteps": 96,
      "PercentPhaseFieldOfView": 100.0,
      "PercentSampling": 100.0,
      "PerformedProcedureStepStartTime": "175735.320000",
      "PhotometricInterpretation": "MONOCHROME2",
      "PixelBandwidth": 2365.0,
      "PixelRepresentation": 0,
      "PixelSpacing": [2.5, 2.5],
      "ProtocolName": "func_run-03_task-movie",
      "RepetitionTime": 1000.0,
      "Rows": 672,
      "SAR": 0.05444005346007,
      "SamplesPerPixel": 1,
      "ScanOptions": "FS",
      "ScanningSequence": "EP",
      "SequenceName": "*epfid2d1_96",
      "SequenceVariant": "SK",
      "SeriesDescription": "func_run-03_task-movie",
      "SeriesNumber": 22,
      "SeriesTime": "183842.992000",
      "SliceLocation": -67.316219590968,
      "SliceThickness": 2.5,
      "SmallestImagePixelValue": 0,
      "SoftwareVersions": "syngo MR E11",
      "SpacingBetweenSlices": 2.5000000168408,
      "SpecificCharacterSet": "ISO_IR 100",
      "StudyID": "1",
      "StudyTime": "175735.259000",
      "TransmitCoilName": "Body",
      "VariableFlipAngleFlag": "N",
      "WindowCenterWidthExplanation": "Algo1",
      "dBdt": 0.0},
    "slices": {}
  },
  "time": {
    "samples": {
      "AcquisitionNumber": [1, 2, 3, 4, 5, 6, 7, 8, 9, 10, 11, 12, 13, 14, 15, 16, 17, 18, 19, 20, 21, 22, 23, 24, 25, 26, 27, 28, 29, 30, 31, 32, 33, 34, 35, 36, 37, 38, 39, 40, 41, 42, 43, 44, 45, 46, 47, 48, 49, 50, 51, 52, 53, 54, 55, 56, 57, 58, 59, 60, 61, 62, 63, 64, 65, 66, 67, 68, 69, 70, 71, 72, 73, 74, 75, 76, 77, 78, 79, 80, 81, 82, 83, 84, 85, 86, 87, 88, 89, 90, 91, 92, 93, 94, 95, 96, 97, 98, 99, 100, 101, 102, 103, 104, 105, 106, 107, 108, 109, 110, 111, 112, 113, 114, 115, 116, 117, 118, 119, 120, 121, 122, 123, 124, 125, 126, 127, 128, 129, 130, 131, 132, 133, 134, 135, 136, 137, 138, 139, 140, 141, 142, 143, 144, 145, 146, 147, 148, 149, 150, 151, 152, 153, 154, 155, 156, 157, 158, 159, 160, 161, 162, 163, 164, 165, 166, 167, 168, 169, 170, 171, 172, 173, 174, 175, 176, 177, 178, 179, 180, 181, 182, 183, 184, 185, 186, 187, 188, 189, 190, 191, 192, 193, 194, 195, 196, 197, 198, 199, 200, 201, 202, 203, 204, 205, 206, 207, 208, 209, 210, 211, 212, 213, 214, 215, 216, 217, 218, 219, 220, 221, 222, 223, 224, 225, 226, 227, 228, 229, 230, 231, 232, 233, 234, 235, 236, 237, 238, 239, 240, 241, 242, 243, 244, 245, 246, 247, 248, 249, 250, 251, 252, 253, 254, 255, 256, 257, 258, 259, 260, 261, 262, 263, 264, 265, 266, 267, 268, 269, 270, 271, 272, 273, 274, 275, 276, 277, 278, 279, 280, 281, 282, 283, 284, 285, 286, 287, 288, 289, 290, 291, 292, 293, 294, 295, 296, 297, 298, 299, 300, 301, 302, 303, 304, 305, 306, 307, 308, 309, 310, 311, 312, 313, 314, 315, 316, 317, 318, 319, 320, 321, 322, 323, 324, 325, 326, 327, 328, 329, 330, 331, 332, 333, 334, 335, 336, 337, 338, 339, 340, 341, 342, 343, 344, 345, 346, 347, 348, 349, 350, 351, 352, 353, 354, 355, 356, 357, 358, 359, 360, 361, 362, 363, 364, 365, 366, 367, 368, 369, 370, 371, 372, 373, 374, 375, 376, 377, 378, 379, 380, 381, 382, 383, 384, 385, 386, 387, 388, 389, 390, 391, 392, 393, 394, 395, 396, 397, 398, 399, 400, 401, 402, 403, 404, 405, 406, 407, 408, 409, 410, 411, 412, 413, 414, 415, 416, 417, 418, 419, 420, 421, 422, 423, 424, 425, 426, 427, 428, 429, 430, 431, 432, 433, 434, 435, 436, 437, 438, 439, 440, 441, 442, 443, 444, 445, 446, 447, 448, 449, 450, 451, 452, 453, 454, 455, 456, 457, 458, 459, 460, 461, 462, 463, 464, 465, 466, 467, 468, 469, 470, 471, 472, 473, 474, 475, 476, 477, 478, 479, 480, 481, 482, 483, 484, 485, 486, 487, 488, 489, 490, 491, 492, 493, 494, 495, 496, 497, 498, 499, 500, 501, 502, 503, 504, 505, 506, 507, 508, 509, 510, 511, 512, 513, 514, 515, 516, 517, 518, 519, 520, 521, 522, 523, 524, 525, 526, 527, 528, 529, 530, 531, 532, 533, 534, 535],
      "AcquisitionTime": ["183841.630000", "183842.630000", "183843.630000", "183844.630000", "183845.630000", "183846.630000", "183847.630000", "183848.630000", "183849.630000", "183850.630000", "183851.630000", "183852.630000", "183853.630000", "183854.630000", "183855.630000", "183856.630000", "183857.630000", "183858.630000", "183859.630000", "183900.630000", "183901.630000", "183902.630000", "183903.630000", "183904.630000", "183905.630000", "183906.630000", "183907.630000", "183908.630000", "183909.630000", "183910.630000", "183911.630000", "183912.630000", "183913.630000", "183914.630000", "183915.630000", "183916.630000", "183917.630000", "183918.630000", "183919.630000", "183920.630000", "183921.630000", "183922.630000", "183923.630000", "183924.630000", "183925.630000", "183926.630000", "183927.630000", "183928.630000", "183929.630000", "183930.630000", "183931.630000", "183932.630000", "183933.630000", "183934.630000", "183935.630000", "183936.630000", "183937.630000", "183938.630000", "183939.630000", "183940.630000", "183941.630000", "183942.630000", "183943.630000", "183944.630000", "183945.630000", "183946.630000", "183947.630000", "183948.630000", "183949.630000", "183950.630000", "183951.630000", "183952.630000", "183953.630000", "183954.630000", "183955.630000", "183956.630000", "183957.630000", "183958.630000", "183959.630000", "184000.630000", "184001.630000", "184002.630000", "184003.630000", "184004.630000", "184005.630000", "184006.630000", "184007.630000", "184008.630000", "184009.630000", "184010.630000", "184011.630000", "184012.630000", "184013.630000", "184014.630000", "184015.630000", "184016.630000", "184017.630000", "184018.630000", "184019.630000", "184020.630000", "184021.630000", "184022.630000", "184023.630000", "184024.630000", "184025.630000", "184026.630000", "184027.630000", "184028.630000", "184029.630000", "184030.630000", "184031.630000", "184032.630000", "184033.630000", "184034.630000", "184035.630000", "184036.630000", "184037.630000", "184038.630000", "184039.630000", "184040.630000", "184041.630000", "184042.630000", "184043.630000", "184044.630000", "184045.630000", "184046.630000", "184047.630000", "184048.630000", "184049.630000", "184050.630000", "184051.630000", "184052.630000", "184053.630000", "184054.630000", "184055.630000", "184056.630000", "184057.630000", "184058.630000", "184059.630000", "184100.630000", "184101.630000", "184102.630000", "184103.630000", "184104.630000", "184105.630000", "184106.630000", "184107.630000", "184108.630000", "184109.630000", "184110.630000", "184111.630000", "184112.630000", "184113.630000", "184114.630000", "184115.630000", "184116.630000", "184117.630000", "184118.630000", "184119.630000", "184120.630000", "184121.630000", "184122.630000", "184123.630000", "184124.630000", "184125.630000", "184126.630000", "184127.630000", "184128.630000", "184129.630000", "184130.630000", "184131.630000", "184132.630000", "184133.630000", "184134.630000", "184135.630000", "184136.630000", "184137.630000", "184138.630000", "184139.630000", "184140.630000", "184141.630000", "184142.630000", "184143.630000", "184144.630000", "184145.630000", "184146.630000", "184147.630000", "184148.630000", "184149.630000", "184150.630000", "184151.630000", "184152.630000", "184153.630000", "184154.630000", "184155.630000", "184156.630000", "184157.630000", "184158.630000", "184159.630000", "184200.630000", "184201.630000", "184202.630000", "184203.630000", "184204.630000", "184205.630000", "184206.630000", "184207.630000", "184208.630000", "184209.630000", "184210.630000", "184211.630000", "184212.630000", "184213.630000", "184214.630000", "184215.630000", "184216.630000", "184217.630000", "184218.630000", "184219.630000", "184220.630000", "184221.630000", "184222.630000", "184223.630000", "184224.630000", "184225.630000", "184226.630000", "184227.630000", "184228.630000", "184229.630000", "184230.630000", "184231.630000", "184232.630000", "184233.630000", "184234.630000", "184235.630000", "184236.630000", "184237.630000", "184238.630000", "184239.630000", "184240.630000", "184241.630000", "184242.630000", "184243.630000", "184244.630000", "184245.630000", "184246.630000", "184247.630000", "184248.630000", "184249.630000", "184250.630000", "184251.630000", "184252.630000", "184253.630000", "184254.630000", "184255.630000", "184256.630000", "184257.630000", "184258.630000", "184259.630000", "184300.630000", "184301.630000", "184302.630000", "184303.630000", "184304.630000", "184305.630000", "184306.630000", "184307.630000", "184308.630000", "184309.630000", "184310.630000", "184311.630000", "184312.630000", "184313.630000", "184314.630000", "184315.630000", "184316.630000", "184317.630000", "184318.630000", "184319.630000", "184320.630000", "184321.630000", "184322.630000", "184323.630000", "184324.630000", "184325.630000", "184326.630000", "184327.630000", "184328.630000", "184329.630000", "184330.630000", "184331.630000", "184332.630000", "184333.630000", "184334.630000", "184335.630000", "184336.630000", "184337.630000", "184338.630000", "184339.630000", "184340.630000", "184341.630000", "184342.630000", "184343.630000", "184344.630000", "184345.630000", "184346.630000", "184347.630000", "184348.630000", "184349.630000", "184350.630000", "184351.630000", "184352.630000", "184353.630000", "184354.630000", "184355.630000", "184356.630000", "184357.630000", "184358.630000", "184359.630000", "184400.630000", "184401.630000", "184402.630000", "184403.630000", "184404.630000", "184405.630000", "184406.630000", "184407.630000", "184408.630000", "184409.630000", "184410.630000", "184411.630000", "184412.630000", "184413.630000", "184414.630000", "184415.630000", "184416.630000", "184417.630000", "184418.630000", "184419.630000", "184420.630000", "184421.630000", "184422.630000", "184423.630000", "184424.630000", "184425.630000", "184426.630000", "184427.630000", "184428.630000", "184429.630000", "184430.630000", "184431.630000", "184432.630000", "184433.630000", "184434.630000", "184435.630000", "184436.630000", "184437.630000", "184438.630000", "184439.630000", "184440.630000", "184441.630000", "184442.630000", "184443.630000", "184444.630000", "184445.630000", "184446.630000", "184447.630000", "184448.630000", "184449.630000", "184450.630000", "184451.630000", "184452.630000", "184453.630000", "184454.630000", "184455.630000", "184456.630000", "184457.630000", "184458.630000", "184459.630000", "184500.630000", "184501.630000", "184502.630000", "184503.630000", "184504.630000", "184505.630000", "184506.630000", "184507.630000", "184508.630000", "184509.630000", "184510.630000", "184511.630000", "184512.630000", "184513.630000", "184514.630000", "184515.630000", "184516.630000", "184517.630000", "184518.630000", "184519.630000", "184520.630000", "184521.630000", "184522.630000", "184523.630000", "184524.630000", "184525.630000", "184526.630000", "184527.630000", "184528.630000", "184529.630000", "184530.630000", "184531.630000", "184532.630000", "184533.630000", "184534.630000", "184535.630000", "184536.630000", "184537.630000", "184538.630000", "184539.630000", "184540.630000", "184541.630000", "184542.630000", "184543.630000", "184544.630000", "184545.630000", "184546.630000", "184547.630000", "184548.630000", "184549.630000", "184550.630000", "184551.630000", "184552.630000", "184553.630000", "184554.630000", "184555.630000", "184556.630000", "184557.630000", "184558.630000", "184559.630000", "184600.630000", "184601.630000", "184602.630000", "184603.630000", "184604.630000", "184605.630000", "184606.630000", "184607.630000", "184608.630000", "184609.630000", "184610.630000", "184611.630000", "184612.630000", "184613.630000", "184614.630000", "184615.630000", "184616.630000", "184617.630000", "184618.630000", "184619.630000", "184620.630000", "184621.630000", "184622.630000", "184623.630000", "184624.630000", "184625.630000", "184626.630000", "184627.630000", "184628.630000", "184629.630000", "184630.630000", "184631.630000", "184632.630000", "184633.630000", "184634.630000", "184635.630000", "184636.630000", "184637.630000", "184638.630000", "184639.630000", "184640.630000", "184641.630000", "184642.630000", "184643.630000", "184644.630000", "184645.630000", "184646.630000", "184647.630000", "184648.630000", "184649.630000", "184650.630000", "184651.630000", "184652.630000", "184653.630000", "184654.630000", "184655.630000", "184656.630000", "184657.630000", "184658.630000", "184659.630000", "184700.630000", "184701.630000", "184702.630000", "184703.630000", "184704.630000", "184705.630000", "184706.630000", "184707.630000", "184708.630000", "184709.630000", "184710.630000", "184711.630000", "184712.630000", "184713.630000", "184714.630000", "184715.630000", "184716.630000", "184717.630000", "184718.630000", "184719.630000", "184720.630000", "184721.630000", "184722.630000", "184723.630000", "184724.630000", "184725.630000", "184726.630000", "184727.630000", "184728.630000", "184729.630000", "184730.630000", "184731.630000", "184732.630000", "184733.630000", "184734.630000", "184735.630000"],
      "ContentTime": ["183842.996000", "183843.805000", "183844.801000", "183845.800000", "183846.807000", "183847.801000", "183848.803000", "183849.795000", "183850.782000", "183851.767000", "183852.784000", "183853.774000", "183854.761000", "183855.793000", "183856.774000", "183857.812000", "183858.786000", "183859.780000", "183900.789000", "183901.787000", "183902.766000", "183903.774000", "183904.843000", "183905.787000", "183906.782000", "183907.818000", "183908.776000", "183909.795000", "183910.787000", "183911.782000", "183912.831000", "183913.781000", "183914.776000", "183915.786000", "183916.774000", "183917.774000", "183918.778000", "183919.827000", "183920.776000", "183921.833000", "183922.775000", "183923.761000", "183924.814000", "183925.785000", "183926.854000", "183927.785000", "183928.817000", "183929.758000", "183930.834000", "183931.794000", "183932.840000", "183933.815000", "183934.789000", "183935.784000", "183936.799000", "183937.801000", "183938.779000", "183939.807000", "183940.811000", "183941.853000", "183942.783000", "183943.780000", "183944.771000", "183945.786000", "183946.781000", "183947.788000", "183948.782000", "183949.770000", "183950.778000", "183951.792000", "183952.780000", "183953.803000", "183954.779000", "183955.772000", "183956.749000", "183957.787000", "183958.773000", "183959.800000", "184000.789000", "184001.798000", "184002.808000", "184003.784000", "184004.797000", "184005.779000", "184006.769000", "184007.781000", "184008.798000", "184009.750000", "184010.793000", "184011.784000", "184012.755000", "184013.803000", "184014.757000", "184015.821000", "184016.774000", "184017.782000", "184018.761000", "184019.793000", "184020.790000", "184021.784000", "184022.795000", "184023.789000", "184024.835000", "184025.796000", "184026.815000", "184027.794000", "184028.797000", "184029.831000", "184030.812000", "184031.772000", "184032.871000", "184033.783000", "184034.798000", "184035.828000", "184036.787000", "184037.828000", "184038.829000", "184039.786000", "184040.762000", "184041.842000", "184042.803000", "184043.780000", "184044.802000", "184045.782000", "184046.775000", "184047.776000", "184048.785000", "184049.791000", "184050.768000", "184051.784000", "184052.812000", "184053.798000", "184054.800000", "184055.875000", "184056.787000", "184057.793000", "184058.789000", "184059.776000", "184100.782000", "184101.801000", "184102.866000", "184103.827000", "184104.795000", "184105.858000", "184106.775000", "184107.806000", "184108.805000", "184109.805000", "184110.789000", "184111.790000", "184112.788000", "184113.794000", "184114.747000", "184115.797000", "184116.818000", "184117.804000", "184118.785000", "184119.789000", "184120.878000", "184121.847000", "184122.795000", "184123.787000", "184124.814000", "184125.770000", "184126.779000", "184127.790000", "184128.825000", "184129.812000", "184130.785000", "184131.782000", "184132.769000", "184133.810000", "184134.803000", "184135.962000", "184136.774000", "184137.800000", "184138.833000", "184139.825000", "184140.796000", "184141.784000", "184142.770000", "184143.806000", "184144.817000", "184145.765000", "184146.768000", "184147.789000", "184148.763000", "184149.777000", "184150.800000", "184151.795000", "184152.792000", "184153.769000", "184154.798000", "184155.811000", "184156.819000", "184157.784000", "184158.796000", "184159.811000", "184200.795000", "184201.785000", "184202.783000", "184203.772000", "184204.790000", "184205.770000", "184206.767000", "184207.816000", "184208.778000", "184209.773000", "184210.774000", "184211.768000", "184212.791000", "184213.765000", "184214.774000", "184215.768000", "184216.818000", "184217.789000", "184218.789000", "184219.770000", "184220.779000", "184221.787000", "184222.754000", "184223.775000", "184224.805000", "184225.785000", "184226.808000", "184227.843000", "184228.782000", "184229.842000", "184230.812000", "184231.796000", "184232.749000", "184233.840000", "184234.816000", "184235.815000", "184236.749000", "184237.778000", "184238.787000", "184239.740000", "184240.772000", "184241.777000", "184242.784000", "184243.827000", "184244.778000", "184245.777000", "184246.773000", "184247.777000", "184248.790000", "184249.773000", "184250.788000", "184251.782000", "184252.784000", "184253.789000", "184254.774000", "184255.812000", "184256.778000", "184257.784000", "184258.787000", "184259.814000", "184300.803000", "184301.799000", "184302.790000", "184303.811000", "184304.791000", "184305.776000", "184306.792000", "184307.781000", "184308.788000", "184309.780000", "184310.810000", "184311.769000", "184312.775000", "184313.799000", "184314.762000", "184315.770000", "184316.789000", "184317.780000", "184318.783000", "184319.811000", "184320.785000", "184321.791000", "184322.772000", "184323.769000", "184324.804000", "184325.788000", "184326.788000", "184327.765000", "184328.784000", "184329.776000", "184330.780000", "184331.821000", "184332.821000", "184333.820000", "184334.842000", "184335.767000", "184336.806000", "184337.778000", "184338.818000", "184339.815000", "184340.786000", "184341.832000", "184342.750000", "184343.777000", "184344.788000", "184345.784000", "184346.785000", "184347.778000", "184348.756000", "184349.848000", "184350.815000", "184351.795000", "184352.792000", "184353.826000", "184354.789000", "184355.832000", "184356.820000", "184357.818000", "184358.769000", "184359.758000", "184400.778000", "184401.779000", "184402.802000", "184403.779000", "184404.774000", "184405.801000", "184406.836000", "184407.813000", "184408.787000", "184409.785000", "184410.814000", "184411.787000", "184412.780000", "184413.779000", "184414.789000", "184415.770000", "184416.797000", "184417.770000", "184418.783000", "184419.834000", "184420.773000", "184421.803000", "184422.788000", "184423.814000", "184424.837000", "184425.764000", "184426.805000", "184427.754000", "184428.779000", "184429.776000", "184430.846000", "184431.843000", "184432.795000", "184433.753000", "184434.800000", "184435.781000", "184436.788000", "184437.801000", "184438.821000", "184439.818000", "184440.799000", "184441.841000", "184442.767000", "184443.810000", "184444.799000", "184445.780000", "184446.782000", "184447.772000", "184448.814000", "184449.779000", "184450.790000", "184451.778000", "184452.776000", "184453.787000", "184454.778000", "184455.823000", "184456.783000", "184457.783000", "184458.774000", "184459.804000", "184500.799000", "184501.779000", "184502.775000", "184503.787000", "184504.769000", "184505.760000", "184506.822000", "184507.777000", "184508.766000", "184509.792000", "184510.782000", "184511.746000", "184512.779000", "184513.777000", "184514.771000", "184515.777000", "184516.770000", "184517.855000", "184518.754000", "184519.814000", "184520.787000", "184521.781000", "184522.781000", "184523.778000", "184524.768000", "184525.796000", "184526.871000", "184527.843000", "184528.790000", "184529.849000", "184530.774000", "184531.854000", "184532.822000", "184533.816000", "184534.773000", "184535.760000", "184536.753000", "184537.782000", "184538.836000", "184539.763000", "184540.780000", "184541.839000", "184542.790000", "184543.791000", "184544.774000", "184545.827000", "184546.755000", "184547.826000", "184548.779000", "184549.855000", "184550.810000", "184551.778000", "184552.797000", "184553.809000", "184554.790000", "184555.789000", "184556.776000", "184557.780000", "184558.765000", "184559.805000", "184600.794000", "184601.846000", "184602.800000", "184603.776000", "184604.793000", "184605.848000", "184606.797000", "184607.786000", "184608.782000", "184609.805000", "184610.798000", "184611.774000", "184612.783000", "184613.774000", "184614.736000", "184615.786000", "184616.814000", "184617.791000", "184618.804000", "184619.820000", "184620.751000", "184621.769000", "184622.830000", "184623.813000", "184624.781000", "184625.799000", "184626.776000", "184627.777000", "184628.752000", "184629.743000", "184630.750000", "184631.816000", "184632.762000", "184633.768000", "184634.771000", "184635.758000", "184636.778000", "184637.775000", "184638.851000", "184639.785000", "184640.807000", "184641.797000", "184642.783000", "184643.813000", "184644.817000", "184645.779000", "184646.781000", "184647.788000", "184648.813000", "184649.849000", "184650.777000", "184651.783000", "184652.793000", "184653.788000", "184654.789000", "184655.788000", "184656.766000", "184657.844000", "184658.773000", "184659.818000", "184700.845000", "184701.830000", "184702.862000", "184703.825000", "184704.808000", "184705.868000", "184706.850000", "184707.852000", "184708.817000", "184709.870000", "184710.842000", "184711.860000", "184712.846000", "184713.847000", "184714.825000", "184715.853000", "184716.811000", "184717.835000", "184718.833000", "184719.882000", "184720.835000", "184721.836000", "184722.903000", "184723.898000", "184724.839000", "184725.826000", "184726.824000", "184727.844000", "184728.860000", "184729.849000", "184730.820000", "184731.832000", "184732.838000", "184733.837000", "184734.841000", "184735.808000", "184736.793000"],
