{
  "AcquisitionMatrixPE": 96,
  "AcquisitionNumber": 1,
  "AcquisitionTime": "11:32:59.412500",
  "BandwidthPerPixelPhaseEncode": 18.939,
  "BaseResolution": 96,
  "BodyPartExamined": "BRAIN",
  "ConsistencyInfo": "N4_VE11C_LATEST_20160120",
  "ConversionSoftware": "dcm2niix",
  "ConversionSoftwareVersion": "v1.0.20190902",
  "DerivedVendorReportedEchoSpacing": 0.000550011,
  "DeviceSerialNumber": "66112",
  "DwellTime": 2.2e-06,
  "EchoTime": 0.033,
  "EchoTrainLength": 96,
  "EffectiveEchoSpacing": 0.000550011,
  "FlipAngle": 59,
  "ImageOrientationPatientDICOM": [0.999192, 0.0327147, 0.0233662, -0.0308772, 0.996699, -0.0750858],
  "ImageType": [
    "ORIGINAL",
    "PRIMARY",
    "FMRI",
    "NONE",
    "ND",
    "NORM",
    "MOSAIC"
],
  "ImagingFrequency": 123.252,
  "InPlanePhaseEncodingDirectionDICOM": "COL",
  "InstitutionAddress": "Maynard_3_Hanover_NH_US_03755",
  "InstitutionName": "Dartmouth_College_-_PBS",
  "InstitutionalDepartmentName": "Department",
  "MRAcquisitionType": "2D",
  "MagneticFieldStrength": 3,
  "Manufacturer": "Siemens",
  "ManufacturersModelName": "Prisma",
  "Modality": "MR",
  "MultibandAccelerationFactor": 4,
  "PartialFourier": 1,
  "PatientPosition": "HFS",
  "PercentPhaseFOV": 100,
  "PhaseEncodingDirection": "j-",
  "PhaseEncodingSteps": 96,
  "PhaseResolution": 1,
  "PixelBandwidth": 2365,
  "ProcedureStepDescription": "Gobbini_Matteo_1037_budapest",
  "ProtocolName": "func_run-01_task-movie",
  "PulseSequenceDetails": "%SiemensSeq%_ep2d_bold",
  "ReceiveCoilActiveElements": "HEA;HEP",
  "ReceiveCoilName": "Head_32",
  "ReconMatrixPE": 96,
  "RefLinesPE": 12,
  "RepetitionTime": 1,
  "SAR": 0.0536276,
  "ScanOptions": "FS",
  "ScanningSequence": "EP",
  "SequenceName": "_epfid2d1_96",
  "SequenceVariant": "SK",
  "SeriesDescription": "func_run-01_task-movie",
  "SeriesNumber": 8,
  "ShimSetting": [4145, -7697, -7307, 416, -35, 47, -14, 104],
  "SliceThickness": 2.5,
  "SliceTiming": [0.735, 0, 0.49, 0.0825, 0.5725, 0.1625, 0.6525, 0.3275, 0.8175, 0.4075, 0.8975, 0.245, 0.735, 0, 0.49, 0.0825, 0.5725, 0.1625, 0.6525, 0.3275, 0.8175, 0.4075, 0.8975, 0.245, 0.735, 0, 0.49, 0.0825, 0.5725, 0.1625, 0.6525, 0.3275, 0.8175, 0.4075, 0.8975, 0.245, 0.735, 0, 0.49, 0.0825, 0.5725, 0.1625, 0.6525, 0.3275, 0.8175, 0.4075, 0.8975, 0.245],
  "SoftwareVersions": "syngo_MR_E11",
  "SpacingBetweenSlices": 2.5,
  "StationName": "AWP66112",
  "TaskName": "movie",
  "TotalReadoutTime": 0.0522511,
  "TxRefAmp": 254.83,
  "dcmmeta_affine": [
    [-2.497978925704956, -0.07719288021326065, 0.06436356157064438, 124.51795959472656],
    [-0.0817866250872612, 2.4917473793029785, -0.18575908243656158, -105.9566421508789],
    [0.058415379375219345, 0.18771454691886902, 2.492258310317993, -88.54437255859375],
    [0.0, 0.0, 0.0, 1.0]
],
  "dcmmeta_reorient_transform": [
    [0.0, -1.0, 0.0, 95.0],
    [1.0, 0.0, 0.0, 0.0],
    [0.0, 0.0, 1.0, 0.0],
    [0.0, 0.0, 0.0, 1.0]
],
  "dcmmeta_shape": [96, 96, 48, 598],
  "dcmmeta_slice_dim": 2,
  "dcmmeta_version": 0.6,
  "global": {
    "const": {
      "AccessionNumber": "A001445",
      "AcquisitionMatrix": [96, 0, 0, 96],
      "AngioFlag": "N",
      "BitsAllocated": 16,
      "BitsStored": 12,
      "BodyPartExamined": "BRAIN",
      "Columns": 672,
      "EchoNumbers": 1,
      "EchoTime": 33.0,
      "EchoTrainLength": 96,
      "FlipAngle": 59.0,
      "HighBit": 11,
      "ImageOrientationPatient": [0.99919156054421, 0.03271464920506, 0.02336615211387, -0.030877150938, 0.9966989121574, -0.0750858179299],
      "ImagePositionPatient": [-814.37101417393, -871.93711356747, -33.473335023603],
      "ImageType": [
        "ORIGINAL",
        "PRIMARY",
        "FMRI",
        "NONE",
        "ND",
        "NORM",
        "MOSAIC"
],
      "ImagedNucleus": "1H",
      "ImagingFrequency": 123.252411,
      "InPlanePhaseEncodingDirection": "COL",
      "MRAcquisitionType": "2D",
      "MagneticFieldStrength": 3.0,
      "Manufacturer": "SIEMENS",
      "ManufacturerModelName": "Prisma",
      "Modality": "MR",
      "NumberOfAverages": 1.0,
      "NumberOfPhaseEncodingSteps": 96,
      "PercentPhaseFieldOfView": 100.0,
      "PercentSampling": 100.0,
      "PerformedProcedureStepStartTime": "111932.351000",
      "PhotometricInterpretation": "MONOCHROME2",
      "PixelBandwidth": 2365.0,
      "PixelRepresentation": 0,
      "PixelSpacing": [2.5, 2.5],
      "ProtocolName": "func_run-01_task-movie",
      "RepetitionTime": 1000.0,
      "Rows": 672,
      "SAR": 0.05362755501335,
      "SamplesPerPixel": 1,
      "ScanOptions": "FS",
      "ScanningSequence": "EP",
      "SequenceName": "*epfid2d1_96",
      "SequenceVariant": "SK",
      "SeriesDescription": "func_run-01_task-movie",
      "SeriesNumber": 8,
      "SeriesTime": "113300.671000",
      "SliceLocation": -77.191447198668,
      "SliceThickness": 2.5,
      "SmallestImagePixelValue": 0,
      "SoftwareVersions": "syngo MR E11",
      "SpacingBetweenSlices": 2.5000000020336,
      "SpecificCharacterSet": "ISO_IR 100",
      "StudyID": "1",
      "StudyTime": "111932.242000",
      "TransmitCoilName": "Body",
      "VariableFlipAngleFlag": "N",
      "WindowCenterWidthExplanation": "Algo1",
      "dBdt": 0.0},
    "slices": {}
  },
  "time": {
    "samples": {
      "AcquisitionNumber": [1, 2, 3, 4, 5, 6, 7, 8, 9, 10, 11, 12, 13, 14, 15, 16, 17, 18, 19, 20, 21, 22, 23, 24, 25, 26, 27, 28, 29, 30, 31, 32, 33, 34, 35, 36, 37, 38, 39, 40, 41, 42, 43, 44, 45, 46, 47, 48, 49, 50, 51, 52, 53, 54, 55, 56, 57, 58, 59, 60, 61, 62, 63, 64, 65, 66, 67, 68, 69, 70, 71, 72, 73, 74, 75, 76, 77, 78, 79, 80, 81, 82, 83, 84, 85, 86, 87, 88, 89, 90, 91, 92, 93, 94, 95, 96, 97, 98, 99, 100, 101, 102, 103, 104, 105, 106, 107, 108, 109, 110, 111, 112, 113, 114, 115, 116, 117, 118, 119, 120, 121, 122, 123, 124, 125, 126, 127, 128, 129, 130, 131, 132, 133, 134, 135, 136, 137, 138, 139, 140, 141, 142, 143, 144, 145, 146, 147, 148, 149, 150, 151, 152, 153, 154, 155, 156, 157, 158, 159, 160, 161, 162, 163, 164, 165, 166, 167, 168, 169, 170, 171, 172, 173, 174, 175, 176, 177, 178, 179, 180, 181, 182, 183, 184, 185, 186, 187, 188, 189, 190, 191, 192, 193, 194, 195, 196, 197, 198, 199, 200, 201, 202, 203, 204, 205, 206, 207, 208, 209, 210, 211, 212, 213, 214, 215, 216, 217, 218, 219, 220, 221, 222, 223, 224, 225, 226, 227, 228, 229, 230, 231, 232, 233, 234, 235, 236, 237, 238, 239, 240, 241, 242, 243, 244, 245, 246, 247, 248, 249, 250, 251, 252, 253, 254, 255, 256, 257, 258, 259, 260, 261, 262, 263, 264, 265, 266, 267, 268, 269, 270, 271, 272, 273, 274, 275, 276, 277, 278, 279, 280, 281, 282, 283, 284, 285, 286, 287, 288, 289, 290, 291, 292, 293, 294, 295, 296, 297, 298, 299, 300, 301, 302, 303, 304, 305, 306, 307, 308, 309, 310, 311, 312, 313, 314, 315, 316, 317, 318, 319, 320, 321, 322, 323, 324, 325, 326, 327, 328, 329, 330, 331, 332, 333, 334, 335, 336, 337, 338, 339, 340, 341, 342, 343, 344, 345, 346, 347, 348, 349, 350, 351, 352, 353, 354, 355, 356, 357, 358, 359, 360, 361, 362, 363, 364, 365, 366, 367, 368, 369, 370, 371, 372, 373, 374, 375, 376, 377, 378, 379, 380, 381, 382, 383, 384, 385, 386, 387, 388, 389, 390, 391, 392, 393, 394, 395, 396, 397, 398, 399, 400, 401, 402, 403, 404, 405, 406, 407, 408, 409, 410, 411, 412, 413, 414, 415, 416, 417, 418, 419, 420, 421, 422, 423, 424, 425, 426, 427, 428, 429, 430, 431, 432, 433, 434, 435, 436, 437, 438, 439, 440, 441, 442, 443, 444, 445, 446, 447, 448, 449, 450, 451, 452, 453, 454, 455, 456, 457, 458, 459, 460, 461, 462, 463, 464, 465, 466, 467, 468, 469, 470, 471, 472, 473, 474, 475, 476, 477, 478, 479, 480, 481, 482, 483, 484, 485, 486, 487, 488, 489, 490, 491, 492, 493, 494, 495, 496, 497, 498, 499, 500, 501, 502, 503, 504, 505, 506, 507, 508, 509, 510, 511, 512, 513, 514, 515, 516, 517, 518, 519, 520, 521, 522, 523, 524, 525, 526, 527, 528, 529, 530, 531, 532, 533, 534, 535, 536, 537, 538, 539, 540, 541, 542, 543, 544, 545, 546, 547, 548, 549, 550, 551, 552, 553, 554, 555, 556, 557, 558, 559, 560, 561, 562, 563, 564, 565, 566, 567, 568, 569, 570, 571, 572, 573, 574, 575, 576, 577, 578, 579, 580, 581, 582, 583, 584, 585, 586, 587, 588, 589, 590, 591, 592, 593, 594, 595, 596, 597, 598],
      "AcquisitionTime": ["113259.412500", "113300.412500", "113301.412500", "113302.412500", "113303.412500", "113304.412500", "113305.412500", "113306.412500", "113307.412500", "113308.412500", "113309.412500", "113310.412500", "113311.412500", "113312.412500", "113313.412500", "113314.412500", "113315.412500", "113316.412500", "113317.412500", "113318.412500", "113319.412500", "113320.412500", "113321.412500", "113322.412500", "113323.412500", "113324.412500", "113325.412500", "113326.412500", "113327.412500", "113328.412500", "113329.412500", "113330.412500", "113331.412500", "113332.412500", "113333.412500", "113334.412500", "113335.412500", "113336.412500", "113337.412500", "113338.412500", "113339.412500", "113340.412500", "113341.412500", "113342.412500", "113343.412500", "113344.412500", "113345.412500", "113346.412500", "113347.412500", "113348.412500", "113349.412500", "113350.412500", "113351.412500", "113352.412500", "113353.412500", "113354.412500", "113355.412500", "113356.412500", "113357.412500", "113358.412500", "113359.412500", "113400.412500", "113401.412500", "113402.412500", "113403.412500", "113404.412500", "113405.412500", "113406.412500", "113407.412500", "113408.412500", "113409.412500", "113410.412500", "113411.412500", "113412.412500", "113413.412500", "113414.412500", "113415.412500", "113416.412500", "113417.412500", "113418.412500", "113419.412500", "113420.412500", "113421.412500", "113422.412500", "113423.412500", "113424.412500", "113425.412500", "113426.412500", "113427.412500", "113428.412500", "113429.412500", "113430.412500", "113431.412500", "113432.412500", "113433.412500", "113434.412500", "113435.412500", "113436.412500", "113437.412500", "113438.412500", "113439.412500", "113440.412500", "113441.412500", "113442.412500", "113443.412500", "113444.412500", "113445.412500", "113446.412500", "113447.412500", "113448.412500", "113449.412500", "113450.412500", "113451.412500", "113452.412500", "113453.412500", "113454.412500", "113455.412500", "113456.412500", "113457.412500", "113458.412500", "113459.412500", "113500.412500", "113501.412500", "113502.412500", "113503.412500", "113504.412500", "113505.412500", "113506.412500", "113507.412500", "113508.412500", "113509.412500", "113510.412500", "113511.412500", "113512.412500", "113513.412500", "113514.412500", "113515.412500", "113516.412500", "113517.412500", "113518.412500", "113519.412500", "113520.412500", "113521.412500", "113522.412500", "113523.412500", "113524.412500", "113525.412500", "113526.412500", "113527.412500", "113528.412500", "113529.412500", "113530.412500", "113531.412500", "113532.412500", "113533.412500", "113534.412500", "113535.412500", "113536.412500", "113537.412500", "113538.412500", "113539.412500", "113540.412500", "113541.412500", "113542.412500", "113543.412500", "113544.412500", "113545.412500", "113546.412500", "113547.412500", "113548.412500", "113549.412500", "113550.412500", "113551.412500", "113552.412500", "113553.412500", "113554.412500", "113555.412500", "113556.412500", "113557.412500", "113558.412500", "113559.412500", "113600.412500", "113601.412500", "113602.412500", "113603.412500", "113604.412500", "113605.412500", "113606.412500", "113607.412500", "113608.412500", "113609.412500", "113610.412500", "113611.412500", "113612.412500", "113613.412500", "113614.412500", "113615.412500", "113616.412500", "113617.412500", "113618.412500", "113619.412500", "113620.412500", "113621.412500", "113622.412500", "113623.412500", "113624.412500", "113625.412500", "113626.412500", "113627.412500", "113628.412500", "113629.412500", "113630.412500", "113631.412500", "113632.412500", "113633.412500", "113634.412500", "113635.412500", "113636.412500", "113637.412500", "113638.412500", "113639.412500", "113640.412500", "113641.412500", "113642.412500", "113643.412500", "113644.412500", "113645.412500", "113646.412500", "113647.412500", "113648.412500", "113649.412500", "113650.412500", "113651.412500", "113652.412500", "113653.412500", "113654.412500", "113655.412500", "113656.412500", "113657.412500", "113658.412500", "113659.412500", "113700.412500", "113701.412500", "113702.412500", "113703.412500", "113704.412500", "113705.412500", "113706.412500", "113707.412500", "113708.412500", "113709.412500", "113710.412500", "113711.412500", "113712.412500", "113713.412500", "113714.412500", "113715.412500", "113716.412500", "113717.412500", "113718.412500", "113719.412500", "113720.412500", "113721.412500", "113722.412500", "113723.412500", "113724.412500", "113725.412500", "113726.412500", "113727.412500", "113728.412500", "113729.412500", "113730.412500", "113731.412500", "113732.412500", "113733.412500", "113734.412500", "113735.412500", "113736.412500", "113737.412500", "113738.412500", "113739.412500", "113740.412500", "113741.412500", "113742.412500", "113743.412500", "113744.412500", "113745.412500", "113746.412500", "113747.412500", "113748.412500", "113749.412500", "113750.412500", "113751.412500", "113752.412500", "113753.412500", "113754.412500", "113755.412500", "113756.412500", "113757.412500", "113758.412500", "113759.412500", "113800.412500", "113801.412500", "113802.412500", "113803.412500", "113804.412500", "113805.412500", "113806.412500", "113807.412500", "113808.412500", "113809.412500", "113810.412500", "113811.412500", "113812.412500", "113813.412500", "113814.412500", "113815.412500", "113816.412500", "113817.412500", "113818.412500", "113819.412500", "113820.412500", "113821.412500", "113822.412500", "113823.412500", "113824.412500", "113825.412500", "113826.412500", "113827.412500", "113828.412500", "113829.412500", "113830.412500", "113831.412500", "113832.412500", "113833.412500", "113834.412500", "113835.412500", "113836.412500", "113837.412500", "113838.412500", "113839.412500", "113840.412500", "113841.412500", "113842.412500", "113843.412500", "113844.412500", "113845.412500", "113846.412500", "113847.412500", "113848.412500", "113849.412500", "113850.412500", "113851.412500", "113852.412500", "113853.412500", "113854.412500", "113855.412500", "113856.412500", "113857.412500", "113858.412500", "113859.412500", "113900.412500", "113901.412500", "113902.412500", "113903.412500", "113904.412500", "113905.412500", "113906.412500", "113907.412500", "113908.412500", "113909.412500", "113910.412500", "113911.412500", "113912.412500", "113913.412500", "113914.412500", "113915.412500", "113916.412500", "113917.412500", "113918.412500", "113919.412500", "113920.412500", "113921.412500", "113922.412500", "113923.412500", "113924.412500", "113925.412500", "113926.412500", "113927.412500", "113928.412500", "113929.412500", "113930.412500", "113931.412500", "113932.412500", "113933.412500", "113934.412500", "113935.412500", "113936.412500", "113937.412500", "113938.412500", "113939.412500", "113940.412500", "113941.412500", "113942.412500", "113943.412500", "113944.412500", "113945.412500", "113946.412500", "113947.412500", "113948.412500", "113949.412500", "113950.412500", "113951.412500", "113952.412500", "113953.412500", "113954.412500", "113955.412500", "113956.412500", "113957.412500", "113958.412500", "113959.412500", "114000.412500", "114001.412500", "114002.412500", "114003.412500", "114004.412500", "114005.412500", "114006.412500", "114007.412500", "114008.412500", "114009.412500", "114010.412500", "114011.412500", "114012.412500", "114013.412500", "114014.412500", "114015.412500", "114016.412500", "114017.412500", "114018.412500", "114019.412500", "114020.412500", "114021.412500", "114022.412500", "114023.412500", "114024.412500", "114025.412500", "114026.412500", "114027.412500", "114028.412500", "114029.412500", "114030.412500", "114031.412500", "114032.412500", "114033.412500", "114034.412500", "114035.412500", "114036.412500", "114037.412500", "114038.412500", "114039.412500", "114040.412500", "114041.412500", "114042.412500", "114043.412500", "114044.412500", "114045.412500", "114046.412500", "114047.412500", "114048.412500", "114049.412500", "114050.412500", "114051.412500", "114052.412500", "114053.412500", "114054.412500", "114055.412500", "114056.412500", "114057.412500", "114058.412500", "114059.412500", "114100.412500", "114101.412500", "114102.412500", "114103.412500", "114104.412500", "114105.412500", "114106.412500", "114107.412500", "114108.412500", "114109.412500", "114110.412500", "114111.412500", "114112.412500", "114113.412500", "114114.412500", "114115.412500", "114116.412500", "114117.412500", "114118.412500", "114119.412500", "114120.412500", "114121.412500", "114122.412500", "114123.412500", "114124.412500", "114125.412500", "114126.412500", "114127.412500", "114128.412500", "114129.412500", "114130.412500", "114131.412500", "114132.412500", "114133.412500", "114134.412500", "114135.412500", "114136.412500", "114137.412500", "114138.412500", "114139.412500", "114140.412500", "114141.412500", "114142.412500", "114143.412500", "114144.412500", "114145.412500", "114146.412500", "114147.412500", "114148.412500", "114149.412500", "114150.412500", "114151.412500", "114152.412500", "114153.412500", "114154.412500", "114155.412500", "114156.412500", "114157.412500", "114158.412500", "114159.412500", "114200.412500", "114201.412500", "114202.412500", "114203.412500", "114204.412500", "114205.412500", "114206.412500", "114207.412500", "114208.412500", "114209.412500", "114210.412500", "114211.412500", "114212.412500", "114213.412500", "114214.412500", "114215.412500", "114216.412500", "114217.412500", "114218.412500", "114219.412500", "114220.412500", "114221.412500", "114222.412500", "114223.412500", "114224.412500", "114225.412500", "114226.412500", "114227.412500", "114228.412500", "114229.412500", "114230.412500", "114231.412500", "114232.412500", "114233.412500", "114234.412500", "114235.412500", "114236.412500", "114237.412500", "114238.412500", "114239.412500", "114240.412500", "114241.412500", "114242.412500", "114243.412500", "114244.412500", "114245.412500", "114246.412500", "114247.412500", "114248.412500", "114249.412500", "114250.412500", "114251.412500", "114252.412500", "114253.412500", "114254.412500", "114255.412500", "114256.412500"],
      "ContentTime": ["113300.674000", "113301.539000", "113302.529000", "113303.502000", "113304.501000", "113305.512000", "113306.479000", "113307.500000", "113308.484000", "113309.532000", "113310.506000", "113311.458000", "113312.456000", "113313.507000", "113314.498000", "113315.477000", "113316.497000", "113317.482000", "113318.457000", "113319.490000", "113320.470000", "113321.502000", "113322.476000", "113323.499000", "113324.468000", "113325.538000", "113326.555000", "113327.497000", "113328.483000", "113329.486000", "113330.481000", "113331.456000", "113332.484000", "113333.499000", "113334.504000", "113335.480000", "113336.490000", "113337.504000", "113338.446000", "113339.485000", "113340.503000", "113341.482000", "113342.452000", "113343.488000", "113344.552000", "113345.506000", "113346.526000", "113347.492000", "113348.458000", "113349.505000", "113350.476000", "113351.488000", "113352.491000", "113353.463000", "113354.467000", "113355.496000", "113356.473000", "113357.494000", "113358.500000", "113359.489000", "113400.455000", "113401.496000", "113402.482000", "113403.489000", "113404.485000", "113405.481000", "113406.478000", "113407.505000", "113408.548000", "113409.478000", "113410.492000", "113411.477000", "113412.486000", "113413.441000", "113414.464000", "113415.478000", "113416.500000", "113417.509000", "113418.473000", "113419.497000", "113420.482000", "113421.470000", "113422.503000", "113423.496000", "113424.493000", "113425.514000", "113426.471000", "113427.482000", "113428.468000", "113429.461000", "113430.483000", "113431.486000", "113432.475000", "113433.473000", "113434.486000", "113435.502000", "113436.475000", "113437.486000", "113438.497000", "113439.488000", "113440.496000", "113441.488000", "113442.501000", "113443.494000", "113444.519000", "113445.494000", "113446.501000", "113447.480000", "113448.458000", "113449.491000", "113450.498000", "113451.489000", "113452.480000", "113453.499000", "113454.562000", "113455.499000", "113456.516000", "113457.484000", "113458.501000", "113459.502000", "113500.466000", "113501.530000", "113502.474000", "113503.515000", "113504.508000", "113505.473000", "113506.497000", "113507.500000", "113508.471000", "113509.489000", "113510.519000", "113511.485000", "113512.491000", "113513.494000", "113514.494000", "113515.502000", "113516.492000", "113517.499000", "113518.486000", "113519.511000", "113520.499000", "113521.487000", "113522.504000", "113523.494000", "113524.461000", "113525.464000", "113526.477000", "113527.472000", "113528.494000", "113529.457000", "113530.490000", "113531.470000", "113532.522000", "113533.510000", "113534.471000", "113535.469000", "113536.469000", "113537.505000", "113538.514000", "113539.492000", "113540.545000", "113541.475000", "113542.480000", "113543.464000", "113544.475000", "113545.484000", "113546.478000", "113547.475000", "113548.475000", "113549.481000", "113550.480000", "113551.472000", "113552.474000", "113553.493000", "113554.480000", "113555.482000", "113556.465000", "113557.494000", "113558.510000", "113559.504000", "113600.482000", "113601.464000", "113602.477000", "113603.500000", "113604.479000", "113605.499000", "113606.469000", "113607.494000", "113608.477000", "113609.496000", "113610.489000", "113611.514000", "113612.497000", "113613.506000", "113614.497000", "113615.493000", "113616.505000", "113617.479000", "113618.506000", "113619.477000", "113620.472000", "113621.485000", "113622.490000", "113623.474000", "113624.478000", "113625.485000", "113626.479000", "113627.475000", "113628.496000", "113629.465000", "113630.483000", "113631.480000", "113632.471000", "113633.483000", "113634.489000", "113635.475000", "113636.498000", "113637.477000", "113638.515000", "113639.492000", "113640.477000", "113641.531000", "113642.485000", "113643.513000", "113644.482000", "113645.458000", "113646.505000", "113647.497000", "113648.492000", "113649.465000", "113650.529000", "113651.496000", "113652.479000", "113653.488000", "113654.477000", "113655.523000", "113656.470000", "113657.474000", "113658.507000", "113659.510000", "113700.466000", "113701.476000", "113702.520000", "113703.495000", "113704.494000", "113705.482000", "113706.515000", "113707.494000", "113708.487000", "113709.485000", "113710.489000", "113711.490000", "113712.501000", "113713.480000", "113714.473000", "113715.496000", "113716.502000", "113717.494000", "113718.473000", "113719.489000", "113720.482000", "113721.493000", "113722.495000", "113723.466000", "113724.474000", "113725.479000", "113726.503000", "113727.526000", "113728.493000", "113729.471000", "113730.480000", "113731.507000", "113732.505000", "113733.498000", "113734.514000", "113735.487000", "113736.477000", "113737.480000", "113738.517000", "113739.500000", "113740.551000", "113741.508000", "113742.489000", "113743.495000", "113744.479000", "113745.472000", "113746.491000", "113747.501000", "113748.468000", "113749.496000", "113750.482000", "113751.477000", "113752.464000", "113753.457000", "113754.480000", "113755.492000", "113756.527000", "113757.505000", "113758.460000", "113759.462000", "113800.516000", "113801.484000", "113802.450000", "113803.482000", "113804.508000", "113805.467000", "113806.491000", "113807.479000", "113808.499000", "113809.466000", "113810.496000", "113811.490000", "113812.484000", "113813.479000", "113814.500000", "113815.503000", "113816.521000", "113817.486000", "113818.477000", "113819.471000", "113820.475000", "113821.503000", "113822.496000", "113823.518000", "113824.523000", "113825.516000", "113826.466000", "113827.467000", "113828.480000", "113829.481000", "113830.487000", "113831.479000", "113832.476000", "113833.516000", "113834.489000", "113835.491000", "113836.497000", "113837.471000", "113838.473000", "113839.483000", "113840.499000", "113841.490000", "113842.485000", "113843.491000", "113844.505000", "113845.500000", "113846.523000", "113847.523000", "113848.462000", "113849.460000", "113850.492000", "113851.502000", "113852.505000", "113853.490000", "113854.478000", "113855.486000", "113856.480000", "113857.493000", "113858.513000", "113859.488000", "113900.498000", "113901.488000", "113902.494000", "113903.482000", "113904.485000", "113905.483000", "113906.498000", "113907.465000", "113908.469000", "113909.507000", "113910.511000", "113911.500000", "113912.464000", "113913.508000", "113914.451000", "113915.513000", "113916.488000", "113917.470000", "113918.451000", "113919.507000", "113920.486000", "113921.501000", "113922.519000", "113923.485000", "113924.481000", "113925.469000", "113926.480000", "113927.493000", "113928.492000", "113929.467000", "113930.508000", "113931.472000", "113932.511000", "113933.468000", "113934.523000", "113935.471000", "113936.477000", "113937.491000", "113938.470000", "113939.495000", "113940.501000", "113941.484000", "113942.466000", "113943.468000", "113944.495000", "113945.479000", "113946.481000", "113947.487000", "113948.478000", "113949.486000", "113950.504000", "113951.490000", "113952.482000", "113953.492000", "113954.452000", "113955.469000", "113956.477000", "113957.489000", "113958.481000", "113959.485000", "114000.460000", "114001.479000", "114002.480000", "114003.474000", "114004.502000", "114005.496000", "114006.478000", "114007.483000", "114008.468000", "114009.472000", "114010.524000", "114011.479000", "114012.495000", "114013.473000", "114014.494000", "114015.471000", "114016.473000", "114017.486000", "114018.494000", "114019.451000", "114020.523000", "114021.491000", "114022.492000", "114023.493000", "114024.477000", "114025.478000", "114026.506000", "114027.481000", "114028.475000", "114029.521000", "114030.492000", "114031.482000", "114032.474000", "114033.482000", "114034.499000", "114035.469000", "114036.479000", "114037.476000", "114038.510000", "114039.516000", "114040.508000", "114041.482000", "114042.465000", "114043.484000", "114044.461000", "114045.509000", "114046.515000", "114047.495000", "114048.491000", "114049.475000", "114050.448000", "114051.467000", "114052.462000", "114053.480000", "114054.463000", "114055.464000", "114056.492000", "114057.449000", "114058.484000", "114059.456000", "114100.501000", "114101.501000", "114102.474000", "114103.482000", "114104.500000", "114105.475000", "114106.505000", "114107.475000", "114108.491000", "114109.451000", "114110.503000", "114111.449000", "114112.511000", "114113.505000", "114114.438000", "114115.529000", "114116.486000", "114117.466000", "114118.473000", "114119.473000", "114120.501000", "114121.483000", "114122.476000", "114123.462000", "114124.474000", "114125.435000", "114126.468000", "114127.487000", "114128.462000", "114129.474000", "114130.497000", "114131.470000", "114132.487000", "114133.464000", "114134.445000", "114135.495000", "114136.457000", "114137.481000", "114138.488000", "114139.478000", "114140.493000", "114141.464000", "114142.462000", "114143.475000", "114144.464000", "114145.467000", "114146.489000", "114147.442000", "114148.527000", "114149.448000", "114150.475000", "114151.480000", "114152.472000", "114153.439000", "114154.488000", "114155.475000", "114156.491000", "114157.489000", "114158.471000", "114159.517000", "114200.482000", "114201.463000", "114202.475000", "114203.483000", "114204.531000", "114205.464000", "114206.465000", "114207.488000", "114208.464000", "114209.438000", "114210.486000", "114211.489000", "114212.440000", "114213.448000", "114214.509000", "114215.454000", "114216.484000", "114217.491000", "114218.492000", "114219.487000", "114220.486000", "114221.465000", "114222.482000", "114223.478000", "114224.488000", "114225.444000", "114226.472000", "114227.549000", "114228.485000", "114229.480000", "114230.492000", "114231.516000", "114232.464000", "114233.489000", "114234.484000", "114235.480000", "114236.489000", "114237.527000", "114238.487000", "114239.488000", "114240.459000", "114241.462000", "114242.494000", "114243.439000", "114244.464000", "114245.471000", "114246.475000", "114247.475000", "114248.484000", "114249.475000", "114250.476000", "114251.455000", "114252.464000", "114253.473000", "114254.475000", "114255.456000", "114256.469000", "114257.530000"],
