{
  "AcquisitionMatrixPE": 96,
  "AcquisitionNumber": 1,
  "AcquisitionTime": "12:12:36.490000",
  "BandwidthPerPixelPhaseEncode": 18.939,
  "BaseResolution": 96,
  "BodyPartExamined": "BRAIN",
  "ConsistencyInfo": "N4_VE11C_LATEST_20160120",
  "ConversionSoftware": "dcm2niix",
  "ConversionSoftwareVersion": "v1.0.20190902",
  "DerivedVendorReportedEchoSpacing": 0.000550011,
  "DeviceSerialNumber": "66112",
  "DwellTime": 2.2e-06,
  "EchoTime": 0.033,
  "EchoTrainLength": 96,
  "EffectiveEchoSpacing": 0.000550011,
  "FlipAngle": 59,
  "ImageOrientationPatientDICOM": [0.999192, 0.0327147, 0.0233662, -0.0308772, 0.996699, -0.0750858],
  "ImageType": [
    "ORIGINAL",
    "PRIMARY",
    "FMRI",
    "NONE",
    "ND",
    "NORM",
    "MOSAIC"
],
  "ImagingFrequency": 123.252,
  "InPlanePhaseEncodingDirectionDICOM": "COL",
  "InstitutionAddress": "Maynard_3_Hanover_NH_US_03755",
  "InstitutionName": "Dartmouth_College_-_PBS",
  "InstitutionalDepartmentName": "Department",
  "MRAcquisitionType": "2D",
  "MagneticFieldStrength": 3,
  "Manufacturer": "Siemens",
  "ManufacturersModelName": "Prisma",
  "Modality": "MR",
  "MultibandAccelerationFactor": 4,
  "PartialFourier": 1,
  "PatientPosition": "HFS",
  "PercentPhaseFOV": 100,
  "PhaseEncodingDirection": "j-",
  "PhaseEncodingSteps": 96,
  "PhaseResolution": 1,
  "PixelBandwidth": 2365,
  "ProcedureStepDescription": "Gobbini_Matteo_1037_budapest",
  "ProtocolName": "func_run-05_task-movie",
  "PulseSequenceDetails": "%SiemensSeq%_ep2d_bold",
  "ReceiveCoilActiveElements": "HEA;HEP",
  "ReceiveCoilName": "Head_32",
  "ReconMatrixPE": 96,
  "RefLinesPE": 12,
  "RepetitionTime": 1,
  "SAR": 0.0537018,
  "ScanOptions": "FS",
  "ScanningSequence": "EP",
  "SequenceName": "_epfid2d1_96",
  "SequenceVariant": "SK",
  "SeriesDescription": "func_run-05_task-movie",
  "SeriesNumber": 36,
  "ShimSetting": [4145, -7697, -7307, 416, -35, 47, -14, 104],
  "SliceThickness": 2.5,
  "SliceTiming": [0.735, 0, 0.49, 0.0825, 0.5725, 0.1625, 0.6525, 0.3275, 0.8175, 0.4075, 0.8975, 0.245, 0.735, 0, 0.49, 0.0825, 0.5725, 0.1625, 0.6525, 0.3275, 0.8175, 0.4075, 0.8975, 0.245, 0.735, 0, 0.49, 0.0825, 0.5725, 0.1625, 0.6525, 0.3275, 0.8175, 0.4075, 0.8975, 0.245, 0.735, 0, 0.49, 0.0825, 0.5725, 0.1625, 0.6525, 0.3275, 0.8175, 0.4075, 0.8975, 0.245],
  "SoftwareVersions": "syngo_MR_E11",
  "SpacingBetweenSlices": 2.5,
  "StationName": "AWP66112",
  "TaskName": "movie",
  "TotalReadoutTime": 0.0522511,
  "TxRefAmp": 254.83,
  "dcmmeta_affine": [
    [-2.497978925704956, -0.07719288021326065, 0.06436356157064438, 124.51795959472656],
    [-0.0817866250872612, 2.4917473793029785, -0.18575908243656158, -105.9566421508789],
    [0.058415379375219345, 0.18771454691886902, 2.492258310317993, -88.54437255859375],
    [0.0, 0.0, 0.0, 1.0]
],
  "dcmmeta_reorient_transform": [
    [0.0, -1.0, 0.0, 95.0],
    [1.0, 0.0, 0.0, 0.0],
    [0.0, 0.0, 1.0, 0.0],
    [0.0, 0.0, 0.0, 1.0]
],
  "dcmmeta_shape": [96, 96, 48, 803],
  "dcmmeta_slice_dim": 2,
  "dcmmeta_version": 0.6,
  "global": {
    "const": {
      "AccessionNumber": "A001445",
      "AcquisitionMatrix": [96, 0, 0, 96],
      "AngioFlag": "N",
      "BitsAllocated": 16,
      "BitsStored": 12,
      "BodyPartExamined": "BRAIN",
      "Columns": 672,
      "EchoNumbers": 1,
      "EchoTime": 33.0,
      "EchoTrainLength": 96,
      "FlipAngle": 59.0,
      "HighBit": 11,
      "ImageOrientationPatient": [0.99919156054421, 0.03271464920506, 0.02336615211387, -0.030877150938, 0.9966989121574, -0.0750858179299],
      "ImagePositionPatient": [-814.37101417393, -871.93711356747, -33.473335023603],
      "ImageType": [
        "ORIGINAL",
        "PRIMARY",
        "FMRI",
        "NONE",
        "ND",
        "NORM",
        "MOSAIC"
],
      "ImagedNucleus": "1H",
      "ImagingFrequency": 123.25243,
      "InPlanePhaseEncodingDirection": "COL",
      "MRAcquisitionType": "2D",
      "MagneticFieldStrength": 3.0,
      "Manufacturer": "SIEMENS",
      "ManufacturerModelName": "Prisma",
      "Modality": "MR",
      "NumberOfAverages": 1.0,
      "NumberOfPhaseEncodingSteps": 96,
      "PercentPhaseFieldOfView": 100.0,
      "PercentSampling": 100.0,
      "PerformedProcedureStepStartTime": "111932.351000",
      "PhotometricInterpretation": "MONOCHROME2",
      "PixelBandwidth": 2365.0,
      "PixelRepresentation": 0,
      "PixelSpacing": [2.5, 2.5],
      "ProtocolName": "func_run-05_task-movie",
      "RepetitionTime": 1000.0,
      "Rows": 672,
      "SAR": 0.05370180929856,
      "SamplesPerPixel": 1,
      "ScanOptions": "FS",
      "ScanningSequence": "EP",
      "SequenceName": "*epfid2d1_96",
      "SequenceVariant": "SK",
      "SeriesDescription": "func_run-05_task-movie",
      "SeriesNumber": 36,
      "SeriesTime": "121237.559000",
      "SliceLocation": -77.191447198668,
      "SliceThickness": 2.5,
      "SmallestImagePixelValue": 0,
      "SoftwareVersions": "syngo MR E11",
      "SpacingBetweenSlices": 2.5000000020336,
      "SpecificCharacterSet": "ISO_IR 100",
      "StudyID": "1",
      "StudyTime": "111932.242000",
      "TransmitCoilName": "Body",
      "VariableFlipAngleFlag": "N",
      "WindowCenterWidthExplanation": "Algo1",
      "dBdt": 0.0},
    "slices": {}
  },
  "time": {
    "samples": {
      "AcquisitionNumber": [1, 2, 3, 4, 5, 6, 7, 8, 9, 10, 11, 12, 13, 14, 15, 16, 17, 18, 19, 20, 21, 22, 23, 24, 25, 26, 27, 28, 29, 30, 31, 32, 33, 34, 35, 36, 37, 38, 39, 40, 41, 42, 43, 44, 45, 46, 47, 48, 49, 50, 51, 52, 53, 54, 55, 56, 57, 58, 59, 60, 61, 62, 63, 64, 65, 66, 67, 68, 69, 70, 71, 72, 73, 74, 75, 76, 77, 78, 79, 80, 81, 82, 83, 84, 85, 86, 87, 88, 89, 90, 91, 92, 93, 94, 95, 96, 97, 98, 99, 100, 101, 102, 103, 104, 105, 106, 107, 108, 109, 110, 111, 112, 113, 114, 115, 116, 117, 118, 119, 120, 121, 122, 123, 124, 125, 126, 127, 128, 129, 130, 131, 132, 133, 134, 135, 136, 137, 138, 139, 140, 141, 142, 143, 144, 145, 146, 147, 148, 149, 150, 151, 152, 153, 154, 155, 156, 157, 158, 159, 160, 161, 162, 163, 164, 165, 166, 167, 168, 169, 170, 171, 172, 173, 174, 175, 176, 177, 178, 179, 180, 181, 182, 183, 184, 185, 186, 187, 188, 189, 190, 191, 192, 193, 194, 195, 196, 197, 198, 199, 200, 201, 202, 203, 204, 205, 206, 207, 208, 209, 210, 211, 212, 213, 214, 215, 216, 217, 218, 219, 220, 221, 222, 223, 224, 225, 226, 227, 228, 229, 230, 231, 232, 233, 234, 235, 236, 237, 238, 239, 240, 241, 242, 243, 244, 245, 246, 247, 248, 249, 250, 251, 252, 253, 254, 255, 256, 257, 258, 259, 260, 261, 262, 263, 264, 265, 266, 267, 268, 269, 270, 271, 272, 273, 274, 275, 276, 277, 278, 279, 280, 281, 282, 283, 284, 285, 286, 287, 288, 289, 290, 291, 292, 293, 294, 295, 296, 297, 298, 299, 300, 301, 302, 303, 304, 305, 306, 307, 308, 309, 310, 311, 312, 313, 314, 315, 316, 317, 318, 319, 320, 321, 322, 323, 324, 325, 326, 327, 328, 329, 330, 331, 332, 333, 334, 335, 336, 337, 338, 339, 340, 341, 342, 343, 344, 345, 346, 347, 348, 349, 350, 351, 352, 353, 354, 355, 356, 357, 358, 359, 360, 361, 362, 363, 364, 365, 366, 367, 368, 369, 370, 371, 372, 373, 374, 375, 376, 377, 378, 379, 380, 381, 382, 383, 384, 385, 386, 387, 388, 389, 390, 391, 392, 393, 394, 395, 396, 397, 398, 399, 400, 401, 402, 403, 404, 405, 406, 407, 408, 409, 410, 411, 412, 413, 414, 415, 416, 417, 418, 419, 420, 421, 422, 423, 424, 425, 426, 427, 428, 429, 430, 431, 432, 433, 434, 435, 436, 437, 438, 439, 440, 441, 442, 443, 444, 445, 446, 447, 448, 449, 450, 451, 452, 453, 454, 455, 456, 457, 458, 459, 460, 461, 462, 463, 464, 465, 466, 467, 468, 469, 470, 471, 472, 473, 474, 475, 476, 477, 478, 479, 480, 481, 482, 483, 484, 485, 486, 487, 488, 489, 490, 491, 492, 493, 494, 495, 496, 497, 498, 499, 500, 501, 502, 503, 504, 505, 506, 507, 508, 509, 510, 511, 512, 513, 514, 515, 516, 517, 518, 519, 520, 521, 522, 523, 524, 525, 526, 527, 528, 529, 530, 531, 532, 533, 534, 535, 536, 537, 538, 539, 540, 541, 542, 543, 544, 545, 546, 547, 548, 549, 550, 551, 552, 553, 554, 555, 556, 557, 558, 559, 560, 561, 562, 563, 564, 565, 566, 567, 568, 569, 570, 571, 572, 573, 574, 575, 576, 577, 578, 579, 580, 581, 582, 583, 584, 585, 586, 587, 588, 589, 590, 591, 592, 593, 594, 595, 596, 597, 598, 599, 600, 601, 602, 603, 604, 605, 606, 607, 608, 609, 610, 611, 612, 613, 614, 615, 616, 617, 618, 619, 620, 621, 622, 623, 624, 625, 626, 627, 628, 629, 630, 631, 632, 633, 634, 635, 636, 637, 638, 639, 640, 641, 642, 643, 644, 645, 646, 647, 648, 649, 650, 651, 652, 653, 654, 655, 656, 657, 658, 659, 660, 661, 662, 663, 664, 665, 666, 667, 668, 669, 670, 671, 672, 673, 674, 675, 676, 677, 678, 679, 680, 681, 682, 683, 684, 685, 686, 687, 688, 689, 690, 691, 692, 693, 694, 695, 696, 697, 698, 699, 700, 701, 702, 703, 704, 705, 706, 707, 708, 709, 710, 711, 712, 713, 714, 715, 716, 717, 718, 719, 720, 721, 722, 723, 724, 725, 726, 727, 728, 729, 730, 731, 732, 733, 734, 735, 736, 737, 738, 739, 740, 741, 742, 743, 744, 745, 746, 747, 748, 749, 750, 751, 752, 753, 754, 755, 756, 757, 758, 759, 760, 761, 762, 763, 764, 765, 766, 767, 768, 769, 770, 771, 772, 773, 774, 775, 776, 777, 778, 779, 780, 781, 782, 783, 784, 785, 786, 787, 788, 789, 790, 791, 792, 793, 794, 795, 796, 797, 798, 799, 800, 801, 802, 803],
      "AcquisitionTime": ["121236.490000", "121237.490000", "121238.490000", "121239.490000", "121240.490000", "121241.490000", "121242.490000", "121243.490000", "121244.490000", "121245.490000", "121246.490000", "121247.490000", "121248.490000", "121249.490000", "121250.490000", "121251.490000", "121252.490000", "121253.490000", "121254.490000", "121255.490000", "121256.490000", "121257.490000", "121258.490000", "121259.490000", "121300.490000", "121301.490000", "121302.490000", "121303.490000", "121304.490000", "121305.490000", "121306.490000", "121307.490000", "121308.490000", "121309.490000", "121310.490000", "121311.490000", "121312.490000", "121313.490000", "121314.490000", "121315.490000", "121316.490000", "121317.490000", "121318.490000", "121319.490000", "121320.490000", "121321.490000", "121322.490000", "121323.490000", "121324.490000", "121325.490000", "121326.490000", "121327.490000", "121328.490000", "121329.490000", "121330.490000", "121331.490000", "121332.490000", "121333.490000", "121334.490000", "121335.490000", "121336.490000", "121337.490000", "121338.490000", "121339.490000", "121340.490000", "121341.490000", "121342.490000", "121343.490000", "121344.490000", "121345.490000", "121346.490000", "121347.490000", "121348.490000", "121349.490000", "121350.490000", "121351.490000", "121352.490000", "121353.490000", "121354.490000", "121355.490000", "121356.490000", "121357.490000", "121358.490000", "121359.490000", "121400.490000", "121401.490000", "121402.490000", "121403.490000", "121404.490000", "121405.490000", "121406.490000", "121407.490000", "121408.490000", "121409.490000", "121410.490000", "121411.490000", "121412.490000", "121413.490000", "121414.490000", "121415.490000", "121416.490000", "121417.490000", "121418.490000", "121419.490000", "121420.490000", "121421.490000", "121422.490000", "121423.490000", "121424.490000", "121425.490000", "121426.490000", "121427.490000", "121428.490000", "121429.490000", "121430.490000", "121431.490000", "121432.490000", "121433.490000", "121434.490000", "121435.490000", "121436.490000", "121437.490000", "121438.490000", "121439.490000", "121440.490000", "121441.490000", "121442.490000", "121443.490000", "121444.490000", "121445.490000", "121446.490000", "121447.490000", "121448.490000", "121449.490000", "121450.490000", "121451.490000", "121452.490000", "121453.490000", "121454.490000", "121455.490000", "121456.490000", "121457.490000", "121458.490000", "121459.490000", "121500.490000", "121501.490000", "121502.490000", "121503.490000", "121504.490000", "121505.490000", "121506.490000", "121507.490000", "121508.490000", "121509.490000", "121510.490000", "121511.490000", "121512.490000", "121513.490000", "121514.490000", "121515.490000", "121516.490000", "121517.490000", "121518.490000", "121519.490000", "121520.490000", "121521.490000", "121522.490000", "121523.490000", "121524.490000", "121525.490000", "121526.490000", "121527.490000", "121528.490000", "121529.490000", "121530.490000", "121531.490000", "121532.490000", "121533.490000", "121534.490000", "121535.490000", "121536.490000", "121537.490000", "121538.490000", "121539.490000", "121540.490000", "121541.490000", "121542.490000", "121543.490000", "121544.490000", "121545.490000", "121546.490000", "121547.490000", "121548.490000", "121549.490000", "121550.490000", "121551.490000", "121552.490000", "121553.490000", "121554.490000", "121555.490000", "121556.490000", "121557.490000", "121558.490000", "121559.490000", "121600.490000", "121601.490000", "121602.490000", "121603.490000", "121604.490000", "121605.490000", "121606.490000", "121607.490000", "121608.490000", "121609.490000", "121610.490000", "121611.490000", "121612.490000", "121613.490000", "121614.490000", "121615.490000", "121616.490000", "121617.490000", "121618.490000", "121619.490000", "121620.490000", "121621.490000", "121622.490000", "121623.490000", "121624.490000", "121625.490000", "121626.490000", "121627.490000", "121628.490000", "121629.490000", "121630.490000", "121631.490000", "121632.490000", "121633.490000", "121634.490000", "121635.490000", "121636.490000", "121637.490000", "121638.490000", "121639.490000", "121640.490000", "121641.490000", "121642.490000", "121643.490000", "121644.490000", "121645.490000", "121646.490000", "121647.490000", "121648.490000", "121649.490000", "121650.490000", "121651.490000", "121652.490000", "121653.490000", "121654.490000", "121655.490000", "121656.490000", "121657.490000", "121658.490000", "121659.490000", "121700.490000", "121701.490000", "121702.490000", "121703.490000", "121704.490000", "121705.490000", "121706.490000", "121707.490000", "121708.490000", "121709.490000", "121710.490000", "121711.490000", "121712.490000", "121713.490000", "121714.490000", "121715.490000", "121716.490000", "121717.490000", "121718.490000", "121719.490000", "121720.490000", "121721.490000", "121722.490000", "121723.490000", "121724.490000", "121725.490000", "121726.490000", "121727.490000", "121728.490000", "121729.490000", "121730.490000", "121731.490000", "121732.490000", "121733.490000", "121734.490000", "121735.490000", "121736.490000", "121737.490000", "121738.490000", "121739.490000", "121740.490000", "121741.490000", "121742.490000", "121743.490000", "121744.490000", "121745.490000", "121746.490000", "121747.490000", "121748.490000", "121749.490000", "121750.490000", "121751.490000", "121752.490000", "121753.490000", "121754.490000", "121755.490000", "121756.490000", "121757.490000", "121758.490000", "121759.490000", "121800.490000", "121801.490000", "121802.490000", "121803.490000", "121804.490000", "121805.490000", "121806.490000", "121807.490000", "121808.490000", "121809.490000", "121810.490000", "121811.490000", "121812.490000", "121813.490000", "121814.490000", "121815.490000", "121816.490000", "121817.490000", "121818.490000", "121819.490000", "121820.490000", "121821.490000", "121822.490000", "121823.490000", "121824.490000", "121825.490000", "121826.490000", "121827.490000", "121828.490000", "121829.490000", "121830.490000", "121831.490000", "121832.490000", "121833.490000", "121834.490000", "121835.490000", "121836.490000", "121837.490000", "121838.490000", "121839.490000", "121840.490000", "121841.490000", "121842.490000", "121843.490000", "121844.490000", "121845.490000", "121846.490000", "121847.490000", "121848.490000", "121849.490000", "121850.490000", "121851.490000", "121852.490000", "121853.490000", "121854.490000", "121855.490000", "121856.490000", "121857.490000", "121858.490000", "121859.490000", "121900.490000", "121901.490000", "121902.490000", "121903.490000", "121904.490000", "121905.490000", "121906.490000", "121907.490000", "121908.490000", "121909.490000", "121910.490000", "121911.490000", "121912.490000", "121913.490000", "121914.490000", "121915.490000", "121916.490000", "121917.490000", "121918.490000", "121919.490000", "121920.490000", "121921.490000", "121922.490000", "121923.490000", "121924.490000", "121925.490000", "121926.490000", "121927.490000", "121928.490000", "121929.490000", "121930.490000", "121931.490000", "121932.490000", "121933.490000", "121934.490000", "121935.490000", "121936.490000", "121937.490000", "121938.490000", "121939.490000", "121940.490000", "121941.490000", "121942.490000", "121943.490000", "121944.490000", "121945.490000", "121946.490000", "121947.490000", "121948.490000", "121949.490000", "121950.490000", "121951.490000", "121952.490000", "121953.490000", "121954.490000", "121955.490000", "121956.490000", "121957.490000", "121958.490000", "121959.490000", "122000.490000", "122001.490000", "122002.490000", "122003.490000", "122004.490000", "122005.490000", "122006.490000", "122007.490000", "122008.490000", "122009.490000", "122010.490000", "122011.490000", "122012.490000", "122013.490000", "122014.490000", "122015.490000", "122016.490000", "122017.490000", "122018.490000", "122019.490000", "122020.490000", "122021.490000", "122022.490000", "122023.490000", "122024.490000", "122025.490000", "122026.490000", "122027.490000", "122028.490000", "122029.490000", "122030.490000", "122031.490000", "122032.490000", "122033.490000", "122034.490000", "122035.490000", "122036.490000", "122037.490000", "122038.490000", "122039.490000", "122040.490000", "122041.490000", "122042.490000", "122043.490000", "122044.490000", "122045.490000", "122046.490000", "122047.490000", "122048.490000", "122049.490000", "122050.490000", "122051.490000", "122052.490000", "122053.490000", "122054.490000", "122055.490000", "122056.490000", "122057.490000", "122058.490000", "122059.490000", "122100.490000", "122101.490000", "122102.490000", "122103.490000", "122104.490000", "122105.490000", "122106.490000", "122107.490000", "122108.490000", "122109.490000", "122110.490000", "122111.490000", "122112.490000", "122113.490000", "122114.490000", "122115.490000", "122116.490000", "122117.490000", "122118.490000", "122119.490000", "122120.490000", "122121.490000", "122122.490000", "122123.490000", "122124.490000", "122125.490000", "122126.490000", "122127.490000", "122128.490000", "122129.490000", "122130.490000", "122131.490000", "122132.490000", "122133.490000", "122134.490000", "122135.490000", "122136.490000", "122137.490000", "122138.490000", "122139.490000", "122140.490000", "122141.490000", "122142.490000", "122143.490000", "122144.490000", "122145.490000", "122146.490000", "122147.490000", "122148.490000", "122149.490000", "122150.490000", "122151.490000", "122152.490000", "122153.490000", "122154.490000", "122155.490000", "122156.490000", "122157.490000", "122158.490000", "122159.490000", "122200.490000", "122201.490000", "122202.490000", "122203.490000", "122204.490000", "122205.490000", "122206.490000", "122207.490000", "122208.490000", "122209.490000", "122210.490000", "122211.490000", "122212.490000", "122213.490000", "122214.490000", "122215.490000", "122216.490000", "122217.490000", "122218.490000", "122219.490000", "122220.490000", "122221.490000", "122222.490000", "122223.490000", "122224.490000", "122225.490000", "122226.490000", "122227.490000", "122228.490000", "122229.490000", "122230.490000", "122231.490000", "122232.490000", "122233.490000", "122234.490000", "122235.490000", "122236.490000", "122237.490000", "122238.490000", "122239.490000", "122240.490000", "122241.490000", "122242.490000", "122243.490000", "122244.490000", "122245.490000", "122246.490000", "122247.490000", "122248.490000", "122249.490000", "122250.490000", "122251.490000", "122252.490000", "122253.490000", "122254.490000", "122255.490000", "122256.490000", "122257.490000", "122258.490000", "122259.490000", "122300.490000", "122301.490000", "122302.490000", "122303.490000", "122304.490000", "122305.490000", "122306.490000", "122307.490000", "122308.490000", "122309.490000", "122310.490000", "122311.490000", "122312.490000", "122313.490000", "122314.490000", "122315.490000", "122316.490000", "122317.490000", "122318.490000", "122319.490000", "122320.490000", "122321.490000", "122322.490000", "122323.490000", "122324.490000", "122325.490000", "122326.490000", "122327.490000", "122328.490000", "122329.490000", "122330.490000", "122331.490000", "122332.490000", "122333.490000", "122334.490000", "122335.490000", "122336.490000", "122337.490000", "122338.490000", "122339.490000", "122340.490000", "122341.490000", "122342.490000", "122343.490000", "122344.490000", "122345.490000", "122346.490000", "122347.490000", "122348.490000", "122349.490000", "122350.490000", "122351.490000", "122352.490000", "122353.490000", "122354.490000", "122355.490000", "122356.490000", "122357.490000", "122358.490000", "122359.490000", "122400.490000", "122401.490000", "122402.490000", "122403.490000", "122404.490000", "122405.490000", "122406.490000", "122407.490000", "122408.490000", "122409.490000", "122410.490000", "122411.490000", "122412.490000", "122413.490000", "122414.490000", "122415.490000", "122416.490000", "122417.490000", "122418.490000", "122419.490000", "122420.490000", "122421.490000", "122422.490000", "122423.490000", "122424.490000", "122425.490000", "122426.490000", "122427.490000", "122428.490000", "122429.490000", "122430.490000", "122431.490000", "122432.490000", "122433.490000", "122434.490000", "122435.490000", "122436.490000", "122437.490000", "122438.490000", "122439.490000", "122440.490000", "122441.490000", "122442.490000", "122443.490000", "122444.490000", "122445.490000", "122446.490000", "122447.490000", "122448.490000", "122449.490000", "122450.490000", "122451.490000", "122452.490000", "122453.490000", "122454.490000", "122455.490000", "122456.490000", "122457.490000", "122458.490000", "122459.490000", "122500.490000", "122501.490000", "122502.490000", "122503.490000", "122504.490000", "122505.490000", "122506.490000", "122507.490000", "122508.490000", "122509.490000", "122510.490000", "122511.490000", "122512.490000", "122513.490000", "122514.490000", "122515.490000", "122516.490000", "122517.490000", "122518.490000", "122519.490000", "122520.490000", "122521.490000", "122522.490000", "122523.490000", "122524.490000", "122525.490000", "122526.490000", "122527.490000", "122528.490000", "122529.490000", "122530.490000", "122531.490000", "122532.490000", "122533.490000", "122534.490000", "122535.490000", "122536.490000", "122537.490000", "122538.490000", "122539.490000", "122540.490000", "122541.490000", "122542.490000", "122543.490000", "122544.490000", "122545.490000", "122546.490000", "122547.490000", "122548.490000", "122549.490000", "122550.490000", "122551.490000", "122552.490000", "122553.490000", "122554.490000", "122555.490000", "122556.490000", "122557.490000", "122558.490000"],
