{
  "AcquisitionMatrixPE": 96,
  "AcquisitionNumber": 1,
  "AcquisitionTime": "12:01:48.050000",
  "BandwidthPerPixelPhaseEncode": 18.939,
  "BaseResolution": 96,
  "BodyPartExamined": "BRAIN",
  "ConsistencyInfo": "N4_VE11C_LATEST_20160120",
  "ConversionSoftware": "dcm2niix",
  "ConversionSoftwareVersion": "v1.0.20190902",
  "DerivedVendorReportedEchoSpacing": 0.000550011,
  "DeviceSerialNumber": "66112",
  "DwellTime": 2.2e-06,
  "EchoTime": 0.033,
  "EchoTrainLength": 96,
  "EffectiveEchoSpacing": 0.000550011,
  "FlipAngle": 59,
  "ImageOrientationPatientDICOM": [0.999192, 0.0327147, 0.0233662, -0.0308772, 0.996699, -0.0750858],
  "ImageType": [
    "ORIGINAL",
    "PRIMARY",
    "FMRI",
    "NONE",
    "ND",
    "NORM",
    "MOSAIC"
],
  "ImagingFrequency": 123.252,
  "InPlanePhaseEncodingDirectionDICOM": "COL",
  "InstitutionAddress": "Maynard_3_Hanover_NH_US_03755",
  "InstitutionName": "Dartmouth_College_-_PBS",
  "InstitutionalDepartmentName": "Department",
  "MRAcquisitionType": "2D",
  "MagneticFieldStrength": 3,
  "Manufacturer": "Siemens",
  "ManufacturersModelName": "Prisma",
  "Modality": "MR",
  "MultibandAccelerationFactor": 4,
  "PartialFourier": 1,
  "PatientPosition": "HFS",
  "PercentPhaseFOV": 100,
  "PhaseEncodingDirection": "j-",
  "PhaseEncodingSteps": 96,
  "PhaseResolution": 1,
  "PixelBandwidth": 2365,
  "ProcedureStepDescription": "Gobbini_Matteo_1037_budapest",
  "ProtocolName": "func_run-04_task-movie",
  "PulseSequenceDetails": "%SiemensSeq%_ep2d_bold",
  "ReceiveCoilActiveElements": "HEA;HEP",
  "ReceiveCoilName": "Head_32",
  "ReconMatrixPE": 96,
  "RefLinesPE": 12,
  "RepetitionTime": 1,
  "SAR": 0.0536369,
  "ScanOptions": "FS",
  "ScanningSequence": "EP",
  "SequenceName": "_epfid2d1_96",
  "SequenceVariant": "SK",
  "SeriesDescription": "func_run-04_task-movie",
  "SeriesNumber": 29,
  "ShimSetting": [4145, -7697, -7307, 416, -35, 47, -14, 104],
  "SliceThickness": 2.5,
  "SliceTiming": [0.735, 0, 0.49, 0.0825, 0.5725, 0.165, 0.655, 0.3275, 0.8175, 0.41, 0.9, 0.245, 0.735, 0, 0.49, 0.0825, 0.5725, 0.165, 0.655, 0.3275, 0.8175, 0.41, 0.9, 0.245, 0.735, 0, 0.49, 0.0825, 0.5725, 0.165, 0.655, 0.3275, 0.8175, 0.41, 0.9, 0.245, 0.735, 0, 0.49, 0.0825, 0.5725, 0.165, 0.655, 0.3275, 0.8175, 0.41, 0.9, 0.245],
  "SoftwareVersions": "syngo_MR_E11",
  "SpacingBetweenSlices": 2.5,
  "StationName": "AWP66112",
  "TaskName": "movie",
  "TotalReadoutTime": 0.0522511,
  "TxRefAmp": 254.83,
  "dcmmeta_affine": [
    [-2.497978925704956, -0.07719288021326065, 0.06436356157064438, 124.51795959472656],
    [-0.0817866250872612, 2.4917473793029785, -0.18575908243656158, -105.9566421508789],
    [0.058415379375219345, 0.18771454691886902, 2.492258310317993, -88.54437255859375],
    [0.0, 0.0, 0.0, 1.0]
],
  "dcmmeta_reorient_transform": [
    [0.0, -1.0, 0.0, 95.0],
    [1.0, 0.0, 0.0, 0.0],
    [0.0, 0.0, 1.0, 0.0],
    [0.0, 0.0, 0.0, 1.0]
],
  "dcmmeta_shape": [96, 96, 48, 618],
  "dcmmeta_slice_dim": 2,
  "dcmmeta_version": 0.6,
  "global": {
    "const": {
      "AccessionNumber": "A001445",
      "AcquisitionMatrix": [96, 0, 0, 96],
      "AngioFlag": "N",
      "BitsAllocated": 16,
      "BitsStored": 12,
      "BodyPartExamined": "BRAIN",
      "Columns": 672,
      "EchoNumbers": 1,
      "EchoTime": 33.0,
      "EchoTrainLength": 96,
      "FlipAngle": 59.0,
      "HighBit": 11,
      "ImageOrientationPatient": [0.99919156054421, 0.03271464920506, 0.02336615211387, -0.030877150938, 0.9966989121574, -0.0750858179299],
      "ImagePositionPatient": [-814.37101417393, -871.93711356747, -33.473335023603],
      "ImageType": [
        "ORIGINAL",
        "PRIMARY",
        "FMRI",
        "NONE",
        "ND",
        "NORM",
        "MOSAIC"
],
      "ImagedNucleus": "1H",
      "ImagingFrequency": 123.252426,
      "InPlanePhaseEncodingDirection": "COL",
      "MRAcquisitionType": "2D",
      "MagneticFieldStrength": 3.0,
      "Manufacturer": "SIEMENS",
      "ManufacturerModelName": "Prisma",
      "Modality": "MR",
      "NumberOfAverages": 1.0,
      "NumberOfPhaseEncodingSteps": 96,
      "PercentPhaseFieldOfView": 100.0,
      "PercentSampling": 100.0,
      "PerformedProcedureStepStartTime": "111932.351000",
      "PhotometricInterpretation": "MONOCHROME2",
      "PixelBandwidth": 2365.0,
      "PixelRepresentation": 0,
      "PixelSpacing": [2.5, 2.5],
      "ProtocolName": "func_run-04_task-movie",
      "RepetitionTime": 1000.0,
      "Rows": 672,
      "SAR": 0.05363693885941,
      "SamplesPerPixel": 1,
      "ScanOptions": "FS",
      "ScanningSequence": "EP",
      "SequenceName": "*epfid2d1_96",
      "SequenceVariant": "SK",
      "SeriesDescription": "func_run-04_task-movie",
      "SeriesNumber": 29,
      "SeriesTime": "120149.328000",
      "SliceLocation": -77.191447198668,
      "SliceThickness": 2.5,
      "SmallestImagePixelValue": 0,
      "SoftwareVersions": "syngo MR E11",
      "SpacingBetweenSlices": 2.5000000020336,
      "SpecificCharacterSet": "ISO_IR 100",
      "StudyID": "1",
      "StudyTime": "111932.242000",
      "TransmitCoilName": "Body",
      "VariableFlipAngleFlag": "N",
      "WindowCenterWidthExplanation": "Algo1",
      "dBdt": 0.0},
    "slices": {}
  },
  "time": {
    "samples": {
      "AcquisitionNumber": [1, 2, 3, 4, 5, 6, 7, 8, 9, 10, 11, 12, 13, 14, 15, 16, 17, 18, 19, 20, 21, 22, 23, 24, 25, 26, 27, 28, 29, 30, 31, 32, 33, 34, 35, 36, 37, 38, 39, 40, 41, 42, 43, 44, 45, 46, 47, 48, 49, 50, 51, 52, 53, 54, 55, 56, 57, 58, 59, 60, 61, 62, 63, 64, 65, 66, 67, 68, 69, 70, 71, 72, 73, 74, 75, 76, 77, 78, 79, 80, 81, 82, 83, 84, 85, 86, 87, 88, 89, 90, 91, 92, 93, 94, 95, 96, 97, 98, 99, 100, 101, 102, 103, 104, 105, 106, 107, 108, 109, 110, 111, 112, 113, 114, 115, 116, 117, 118, 119, 120, 121, 122, 123, 124, 125, 126, 127, 128, 129, 130, 131, 132, 133, 134, 135, 136, 137, 138, 139, 140, 141, 142, 143, 144, 145, 146, 147, 148, 149, 150, 151, 152, 153, 154, 155, 156, 157, 158, 159, 160, 161, 162, 163, 164, 165, 166, 167, 168, 169, 170, 171, 172, 173, 174, 175, 176, 177, 178, 179, 180, 181, 182, 183, 184, 185, 186, 187, 188, 189, 190, 191, 192, 193, 194, 195, 196, 197, 198, 199, 200, 201, 202, 203, 204, 205, 206, 207, 208, 209, 210, 211, 212, 213, 214, 215, 216, 217, 218, 219, 220, 221, 222, 223, 224, 225, 226, 227, 228, 229, 230, 231, 232, 233, 234, 235, 236, 237, 238, 239, 240, 241, 242, 243, 244, 245, 246, 247, 248, 249, 250, 251, 252, 253, 254, 255, 256, 257, 258, 259, 260, 261, 262, 263, 264, 265, 266, 267, 268, 269, 270, 271, 272, 273, 274, 275, 276, 277, 278, 279, 280, 281, 282, 283, 284, 285, 286, 287, 288, 289, 290, 291, 292, 293, 294, 295, 296, 297, 298, 299, 300, 301, 302, 303, 304, 305, 306, 307, 308, 309, 310, 311, 312, 313, 314, 315, 316, 317, 318, 319, 320, 321, 322, 323, 324, 325, 326, 327, 328, 329, 330, 331, 332, 333, 334, 335, 336, 337, 338, 339, 340, 341, 342, 343, 344, 345, 346, 347, 348, 349, 350, 351, 352, 353, 354, 355, 356, 357, 358, 359, 360, 361, 362, 363, 364, 365, 366, 367, 368, 369, 370, 371, 372, 373, 374, 375, 376, 377, 378, 379, 380, 381, 382, 383, 384, 385, 386, 387, 388, 389, 390, 391, 392, 393, 394, 395, 396, 397, 398, 399, 400, 401, 402, 403, 404, 405, 406, 407, 408, 409, 410, 411, 412, 413, 414, 415, 416, 417, 418, 419, 420, 421, 422, 423, 424, 425, 426, 427, 428, 429, 430, 431, 432, 433, 434, 435, 436, 437, 438, 439, 440, 441, 442, 443, 444, 445, 446, 447, 448, 449, 450, 451, 452, 453, 454, 455, 456, 457, 458, 459, 460, 461, 462, 463, 464, 465, 466, 467, 468, 469, 470, 471, 472, 473, 474, 475, 476, 477, 478, 479, 480, 481, 482, 483, 484, 485, 486, 487, 488, 489, 490, 491, 492, 493, 494, 495, 496, 497, 498, 499, 500, 501, 502, 503, 504, 505, 506, 507, 508, 509, 510, 511, 512, 513, 514, 515, 516, 517, 518, 519, 520, 521, 522, 523, 524, 525, 526, 527, 528, 529, 530, 531, 532, 533, 534, 535, 536, 537, 538, 539, 540, 541, 542, 543, 544, 545, 546, 547, 548, 549, 550, 551, 552, 553, 554, 555, 556, 557, 558, 559, 560, 561, 562, 563, 564, 565, 566, 567, 568, 569, 570, 571, 572, 573, 574, 575, 576, 577, 578, 579, 580, 581, 582, 583, 584, 585, 586, 587, 588, 589, 590, 591, 592, 593, 594, 595, 596, 597, 598, 599, 600, 601, 602, 603, 604, 605, 606, 607, 608, 609, 610, 611, 612, 613, 614, 615, 616, 617, 618],
      "AcquisitionTime": ["120148.050000", "120149.050000", "120150.050000", "120151.050000", "120152.050000", "120153.050000", "120154.050000", "120155.050000", "120156.050000", "120157.050000", "120158.050000", "120159.050000", "120200.050000", "120201.050000", "120202.050000", "120203.050000", "120204.050000", "120205.050000", "120206.050000", "120207.050000", "120208.050000", "120209.050000", "120210.050000", "120211.050000", "120212.050000", "120213.050000", "120214.050000", "120215.050000", "120216.050000", "120217.050000", "120218.050000", "120219.050000", "120220.050000", "120221.050000", "120222.050000", "120223.050000", "120224.050000", "120225.050000", "120226.050000", "120227.050000", "120228.050000", "120229.050000", "120230.050000", "120231.050000", "120232.050000", "120233.050000", "120234.050000", "120235.050000", "120236.050000", "120237.050000", "120238.050000", "120239.050000", "120240.050000", "120241.050000", "120242.050000", "120243.050000", "120244.050000", "120245.050000", "120246.050000", "120247.050000", "120248.050000", "120249.050000", "120250.050000", "120251.050000", "120252.050000", "120253.050000", "120254.050000", "120255.050000", "120256.050000", "120257.050000", "120258.050000", "120259.050000", "120300.050000", "120301.050000", "120302.050000", "120303.050000", "120304.050000", "120305.050000", "120306.050000", "120307.050000", "120308.050000", "120309.050000", "120310.050000", "120311.050000", "120312.050000", "120313.050000", "120314.050000", "120315.050000", "120316.050000", "120317.050000", "120318.050000", "120319.050000", "120320.050000", "120321.050000", "120322.050000", "120323.050000", "120324.050000", "120325.050000", "120326.050000", "120327.050000", "120328.050000", "120329.050000", "120330.050000", "120331.050000", "120332.050000", "120333.050000", "120334.050000", "120335.050000", "120336.050000", "120337.050000", "120338.050000", "120339.050000", "120340.050000", "120341.050000", "120342.050000", "120343.050000", "120344.050000", "120345.050000", "120346.050000", "120347.050000", "120348.050000", "120349.050000", "120350.050000", "120351.050000", "120352.050000", "120353.050000", "120354.050000", "120355.050000", "120356.050000", "120357.050000", "120358.050000", "120359.050000", "120400.050000", "120401.050000", "120402.050000", "120403.050000", "120404.050000", "120405.050000", "120406.050000", "120407.050000", "120408.050000", "120409.050000", "120410.050000", "120411.050000", "120412.050000", "120413.050000", "120414.050000", "120415.050000", "120416.050000", "120417.050000", "120418.050000", "120419.050000", "120420.050000", "120421.050000", "120422.050000", "120423.050000", "120424.050000", "120425.050000", "120426.050000", "120427.050000", "120428.050000", "120429.050000", "120430.050000", "120431.050000", "120432.050000", "120433.050000", "120434.050000", "120435.050000", "120436.050000", "120437.050000", "120438.050000", "120439.050000", "120440.050000", "120441.050000", "120442.050000", "120443.050000", "120444.050000", "120445.050000", "120446.050000", "120447.050000", "120448.050000", "120449.050000", "120450.050000", "120451.050000", "120452.050000", "120453.050000", "120454.050000", "120455.050000", "120456.050000", "120457.050000", "120458.050000", "120459.050000", "120500.050000", "120501.050000", "120502.050000", "120503.050000", "120504.050000", "120505.050000", "120506.050000", "120507.050000", "120508.050000", "120509.050000", "120510.050000", "120511.050000", "120512.050000", "120513.050000", "120514.050000", "120515.050000", "120516.050000", "120517.050000", "120518.050000", "120519.050000", "120520.050000", "120521.050000", "120522.050000", "120523.050000", "120524.050000", "120525.050000", "120526.050000", "120527.050000", "120528.050000", "120529.050000", "120530.050000", "120531.050000", "120532.050000", "120533.050000", "120534.050000", "120535.050000", "120536.050000", "120537.050000", "120538.050000", "120539.050000", "120540.050000", "120541.050000", "120542.050000", "120543.050000", "120544.050000", "120545.050000", "120546.050000", "120547.050000", "120548.050000", "120549.050000", "120550.050000", "120551.050000", "120552.050000", "120553.050000", "120554.050000", "120555.050000", "120556.050000", "120557.050000", "120558.050000", "120559.050000", "120600.050000", "120601.050000", "120602.050000", "120603.050000", "120604.050000", "120605.050000", "120606.050000", "120607.050000", "120608.050000", "120609.050000", "120610.050000", "120611.050000", "120612.050000", "120613.050000", "120614.050000", "120615.050000", "120616.050000", "120617.050000", "120618.050000", "120619.050000", "120620.050000", "120621.050000", "120622.050000", "120623.050000", "120624.050000", "120625.050000", "120626.050000", "120627.050000", "120628.050000", "120629.050000", "120630.050000", "120631.050000", "120632.050000", "120633.050000", "120634.050000", "120635.050000", "120636.050000", "120637.050000", "120638.050000", "120639.050000", "120640.050000", "120641.050000", "120642.050000", "120643.050000", "120644.050000", "120645.050000", "120646.050000", "120647.050000", "120648.050000", "120649.050000", "120650.050000", "120651.050000", "120652.050000", "120653.050000", "120654.050000", "120655.050000", "120656.050000", "120657.050000", "120658.050000", "120659.050000", "120700.050000", "120701.050000", "120702.050000", "120703.050000", "120704.050000", "120705.050000", "120706.050000", "120707.050000", "120708.050000", "120709.050000", "120710.050000", "120711.050000", "120712.050000", "120713.050000", "120714.050000", "120715.050000", "120716.050000", "120717.050000", "120718.050000", "120719.050000", "120720.050000", "120721.050000", "120722.050000", "120723.050000", "120724.050000", "120725.050000", "120726.050000", "120727.050000", "120728.050000", "120729.050000", "120730.050000", "120731.050000", "120732.050000", "120733.050000", "120734.050000", "120735.050000", "120736.050000", "120737.050000", "120738.050000", "120739.050000", "120740.050000", "120741.050000", "120742.050000", "120743.050000", "120744.050000", "120745.050000", "120746.050000", "120747.050000", "120748.050000", "120749.050000", "120750.050000", "120751.050000", "120752.050000", "120753.050000", "120754.050000", "120755.050000", "120756.050000", "120757.050000", "120758.050000", "120759.050000", "120800.050000", "120801.050000", "120802.050000", "120803.050000", "120804.050000", "120805.050000", "120806.050000", "120807.050000", "120808.050000", "120809.050000", "120810.050000", "120811.050000", "120812.050000", "120813.050000", "120814.050000", "120815.050000", "120816.050000", "120817.050000", "120818.050000", "120819.050000", "120820.050000", "120821.050000", "120822.050000", "120823.050000", "120824.050000", "120825.050000", "120826.050000", "120827.050000", "120828.050000", "120829.050000", "120830.050000", "120831.050000", "120832.050000", "120833.050000", "120834.050000", "120835.050000", "120836.050000", "120837.050000", "120838.050000", "120839.050000", "120840.050000", "120841.050000", "120842.050000", "120843.050000", "120844.050000", "120845.050000", "120846.050000", "120847.050000", "120848.050000", "120849.050000", "120850.050000", "120851.050000", "120852.050000", "120853.050000", "120854.050000", "120855.050000", "120856.050000", "120857.050000", "120858.050000", "120859.050000", "120900.050000", "120901.050000", "120902.050000", "120903.050000", "120904.050000", "120905.050000", "120906.050000", "120907.050000", "120908.050000", "120909.050000", "120910.050000", "120911.050000", "120912.050000", "120913.050000", "120914.050000", "120915.050000", "120916.050000", "120917.050000", "120918.050000", "120919.050000", "120920.050000", "120921.050000", "120922.050000", "120923.050000", "120924.050000", "120925.050000", "120926.050000", "120927.050000", "120928.050000", "120929.050000", "120930.050000", "120931.050000", "120932.050000", "120933.050000", "120934.050000", "120935.050000", "120936.050000", "120937.050000", "120938.050000", "120939.050000", "120940.050000", "120941.050000", "120942.050000", "120943.050000", "120944.050000", "120945.050000", "120946.050000", "120947.050000", "120948.050000", "120949.050000", "120950.050000", "120951.050000", "120952.050000", "120953.050000", "120954.050000", "120955.050000", "120956.050000", "120957.050000", "120958.050000", "120959.050000", "121000.050000", "121001.050000", "121002.050000", "121003.050000", "121004.050000", "121005.050000", "121006.050000", "121007.050000", "121008.050000", "121009.050000", "121010.050000", "121011.050000", "121012.050000", "121013.050000", "121014.050000", "121015.050000", "121016.050000", "121017.050000", "121018.050000", "121019.050000", "121020.050000", "121021.050000", "121022.050000", "121023.050000", "121024.050000", "121025.050000", "121026.050000", "121027.050000", "121028.050000", "121029.050000", "121030.050000", "121031.050000", "121032.050000", "121033.050000", "121034.050000", "121035.050000", "121036.050000", "121037.050000", "121038.050000", "121039.050000", "121040.050000", "121041.050000", "121042.050000", "121043.050000", "121044.050000", "121045.050000", "121046.050000", "121047.050000", "121048.050000", "121049.050000", "121050.050000", "121051.050000", "121052.050000", "121053.050000", "121054.050000", "121055.050000", "121056.050000", "121057.050000", "121058.050000", "121059.050000", "121100.050000", "121101.050000", "121102.050000", "121103.050000", "121104.050000", "121105.050000", "121106.050000", "121107.050000", "121108.050000", "121109.050000", "121110.050000", "121111.050000", "121112.050000", "121113.050000", "121114.050000", "121115.050000", "121116.050000", "121117.050000", "121118.050000", "121119.050000", "121120.050000", "121121.050000", "121122.050000", "121123.050000", "121124.050000", "121125.050000", "121126.050000", "121127.050000", "121128.050000", "121129.050000", "121130.050000", "121131.050000", "121132.050000", "121133.050000", "121134.050000", "121135.050000", "121136.050000", "121137.050000", "121138.050000", "121139.050000", "121140.050000", "121141.050000", "121142.050000", "121143.050000", "121144.050000", "121145.050000", "121146.050000", "121147.050000", "121148.050000", "121149.050000", "121150.050000", "121151.050000", "121152.050000", "121153.050000", "121154.050000", "121155.050000", "121156.050000", "121157.050000", "121158.050000", "121159.050000", "121200.050000", "121201.050000", "121202.050000", "121203.050000", "121204.050000", "121205.050000"],
      "ContentTime": ["120149.331000", "120150.152000", "120151.164000", "120152.166000", "120153.172000", "120154.146000", "120155.139000", "120156.166000", "120157.165000", "120158.153000", "120159.153000", "120200.157000", "120201.157000", "120202.167000", "120203.119000", "120204.175000", "120205.156000", "120206.158000", "120207.146000", "120208.170000", "120209.154000", "120210.156000", "120211.135000", "120212.160000", "120213.142000", "120214.189000", "120215.147000", "120216.148000", "120217.160000", "120218.172000", "120219.151000", "120220.134000", "120221.172000", "120222.127000", "120223.159000", "120224.164000", "120225.124000", "120226.172000", "120227.130000", "120228.191000", "120229.154000", "120230.141000", "120231.161000", "120232.145000", "120233.161000", "120234.131000", "120235.155000", "120236.160000", "120237.209000", "120238.157000", "120239.168000", "120240.144000", "120241.132000", "120242.126000", "120243.130000", "120244.141000", "120245.143000", "120246.128000", "120247.169000", "120248.156000", "120249.154000", "120250.132000", "120251.134000", "120252.175000", "120253.154000", "120254.133000", "120255.100000", "120256.171000", "120257.154000", "120258.194000", "120259.169000", "120300.212000", "120301.138000", "120302.153000", "120303.173000", "120304.153000", "120305.174000", "120306.151000", "120307.140000", "120308.144000", "120309.148000", "120310.119000", "120311.154000", "120312.166000", "120313.164000", "120314.158000", "120315.176000", "120316.150000", "120317.155000", "120318.155000", "120319.179000", "120320.121000", "120321.154000", "120322.173000", "120323.151000", "120324.150000", "120325.174000", "120326.155000", "120327.147000", "120328.158000", "120329.173000", "120330.173000", "120331.208000", "120332.162000", "120333.151000", "120334.176000", "120335.185000", "120336.185000", "120337.139000", "120338.203000", "120339.197000", "120340.200000", "120341.211000", "120342.186000", "120343.216000", "120344.125000", "120345.163000", "120346.167000", "120347.136000", "120348.170000", "120349.214000", "120350.157000", "120351.172000", "120352.152000", "120353.175000", "120354.168000", "120355.148000", "120356.153000", "120357.180000", "120358.162000", "120359.164000", "120400.171000", "120401.169000", "120402.179000", "120403.166000", "120404.172000", "120405.174000", "120406.167000", "120407.162000", "120408.176000", "120409.140000", "120410.152000", "120411.154000", "120412.168000", "120413.164000", "120414.167000", "120415.149000", "120416.171000", "120417.151000", "120418.163000", "120419.167000", "120420.163000", "120421.152000", "120422.162000", "120423.144000", "120424.162000", "120425.146000", "120426.158000", "120427.150000", "120428.160000", "120429.146000", "120430.155000", "120431.180000", "120432.159000", "120433.145000", "120434.162000", "120435.147000", "120436.154000", "120437.151000", "120438.159000", "120439.134000", "120440.166000", "120441.140000", "120442.187000", "120443.161000", "120444.165000", "120445.149000", "120446.166000", "120447.133000", "120448.152000", "120449.155000", "120450.192000", "120451.109000", "120452.129000", "120453.160000", "120454.154000", "120455.151000", "120456.171000", "120457.168000", "120458.148000", "120459.189000", "120500.149000", "120501.159000", "120502.146000", "120503.149000", "120504.174000", "120505.116000", "120506.142000", "120507.152000", "120508.124000", "120509.156000", "120510.150000", "120511.193000", "120512.150000", "120513.161000", "120514.145000", "120515.127000", "120516.190000", "120517.131000", "120518.174000", "120519.166000", "120520.211000", "120521.179000", "120522.161000", "120523.205000", "120524.131000", "120525.127000", "120526.146000", "120527.166000", "120528.162000", "120529.161000", "120530.145000", "120531.169000", "120532.161000", "120533.134000", "120534.153000", "120535.156000", "120536.142000", "120537.139000", "120538.111000", "120539.210000", "120540.176000", "120541.139000", "120542.150000", "120543.152000", "120544.147000", "120545.173000", "120546.174000", "120547.183000", "120548.191000", "120549.198000", "120550.150000", "120551.233000", "120552.153000", "120553.150000", "120554.183000", "120555.165000", "120556.165000", "120557.113000", "120558.158000", "120559.154000", "120600.163000", "120601.156000", "120602.188000", "120603.133000", "120604.171000", "120605.192000", "120606.194000", "120607.215000", "120608.137000", "120609.180000", "120610.143000", "120611.111000", "120612.186000", "120613.131000", "120614.160000", "120615.157000", "120616.116000", "120617.199000", "120618.185000", "120619.146000", "120620.139000", "120621.167000", "120622.252000", "120623.156000", "120624.166000", "120625.143000", "120626.163000", "120627.157000", "120628.144000", "120629.153000", "120630.172000", "120631.124000", "120632.158000", "120633.150000", "120634.171000", "120635.171000", "120636.148000", "120637.235000", "120638.154000", "120639.155000", "120640.188000", "120641.150000", "120642.156000", "120643.143000", "120644.176000", "120645.157000", "120646.175000", "120647.197000", "120648.172000", "120649.143000", "120650.142000", "120651.171000", "120652.151000", "120653.144000", "120654.142000", "120655.125000", "120656.177000", "120657.146000", "120658.152000", "120659.145000", "120700.153000", "120701.127000", "120702.150000", "120703.200000", "120704.138000", "120705.146000", "120706.161000", "120707.178000", "120708.162000", "120709.153000", "120710.154000", "120711.181000", "120712.139000", "120713.139000", "120714.165000", "120715.154000", "120716.163000", "120717.142000", "120718.161000", "120719.157000", "120720.177000", "120721.147000", "120722.146000", "120723.146000", "120724.179000", "120725.167000", "120726.153000", "120727.155000", "120728.166000", "120729.142000", "120730.185000", "120731.160000", "120732.168000", "120733.168000", "120734.165000", "120735.173000", "120736.142000", "120737.182000", "120738.167000", "120739.162000", "120740.132000", "120741.162000", "120742.143000", "120743.166000", "120744.127000", "120745.104000", "120746.118000", "120747.155000", "120748.154000", "120749.168000", "120750.153000", "120751.142000", "120752.127000", "120753.179000", "120754.153000", "120755.173000", "120756.149000", "120757.165000", "120758.160000", "120759.173000", "120800.159000", "120801.173000", "120802.167000", "120803.178000", "120804.172000", "120805.158000", "120806.167000", "120807.167000", "120808.171000", "120809.158000", "120810.165000", "120811.184000", "120812.160000", "120813.136000", "120814.384000", "120815.188000", "120816.140000", "120817.148000", "120818.183000", "120819.601000", "120820.517000", "120821.167000", "120822.146000", "120823.163000", "120824.146000", "120825.133000", "120826.167000", "120827.143000", "120828.156000", "120829.163000", "120830.138000", "120831.131000", "120832.158000", "120833.178000", "120834.139000", "120835.150000", "120836.155000", "120837.138000", "120838.178000", "120839.157000", "120840.160000", "120841.147000", "120842.152000", "120843.163000", "120844.158000", "120845.167000", "120846.143000", "120847.140000", "120848.149000", "120849.159000", "120850.124000", "120851.157000", "120852.138000", "120853.154000", "120854.162000", "120855.152000", "120856.153000", "120857.146000", "120858.143000", "120859.148000", "120900.134000", "120901.146000", "120902.168000", "120903.155000", "120904.158000", "120905.139000", "120906.152000", "120907.157000", "120908.159000", "120909.164000", "120910.153000", "120911.155000", "120912.149000", "120913.136000", "120914.170000", "120915.170000", "120916.206000", "120917.135000", "120918.164000", "120919.140000", "120920.147000", "120921.179000", "120922.153000", "120923.124000", "120924.143000", "120925.152000", "120926.137000", "120927.173000", "120928.165000", "120929.147000", "120930.126000", "120931.154000", "120932.142000", "120933.174000", "120934.148000", "120935.174000", "120936.134000", "120937.168000", "120938.126000", "120939.140000", "120940.130000", "120941.153000", "120942.171000", "120943.180000", "120944.132000", "120945.159000", "120946.136000", "120947.156000", "120948.133000", "120949.157000", "120950.102000", "120951.147000", "120952.197000", "120953.175000", "120954.130000", "120955.131000", "120956.160000", "120957.172000", "120958.173000", "120959.139000", "121000.158000", "121001.149000", "121002.147000", "121003.131000", "121004.139000", "121005.138000", "121006.212000", "121007.155000", "121008.132000", "121009.185000", "121010.142000", "121011.171000", "121012.135000", "121013.100000", "121014.128000", "121015.145000", "121016.142000", "121017.152000", "121018.170000", "121019.158000", "121020.153000", "121021.145000", "121022.156000", "121023.123000", "121024.160000", "121025.149000", "121026.138000", "121027.146000", "121028.140000", "121029.141000", "121030.159000", "121031.180000", "121032.137000", "121033.143000", "121034.166000", "121035.134000", "121036.148000", "121037.141000", "121038.138000", "121039.154000", "121040.155000", "121041.138000", "121042.145000", "121043.131000", "121044.140000", "121045.179000", "121046.160000", "121047.172000", "121048.140000", "121049.142000", "121050.162000", "121051.147000", "121052.133000", "121053.144000", "121054.162000", "121055.158000", "121056.185000", "121057.158000", "121058.152000", "121059.155000", "121100.136000", "121101.148000", "121102.137000", "121103.137000", "121104.173000", "121105.154000", "121106.122000", "121107.117000", "121108.151000", "121109.146000", "121110.157000", "121111.139000", "121112.143000", "121113.176000", "121114.154000", "121115.145000", "121116.130000", "121117.166000", "121118.138000", "121119.159000", "121120.159000", "121121.143000", "121122.156000", "121123.131000", "121124.143000", "121125.137000", "121126.159000", "121127.154000", "121128.145000", "121129.168000", "121130.144000", "121131.159000", "121132.130000", "121133.130000", "121134.115000", "121135.121000", "121136.159000", "121137.139000", "121138.156000", "121139.157000", "121140.131000", "121141.142000", "121142.171000", "121143.188000", "121144.181000", "121145.141000", "121146.159000", "121147.148000", "121148.133000", "121149.119000", "121150.154000", "121151.155000", "121152.168000", "121153.133000", "121154.151000", "121155.135000", "121156.152000", "121157.145000", "121158.218000", "121159.163000", "121200.153000", "121201.154000", "121202.122000", "121203.161000", "121204.169000", "121205.146000", "121206.225000"],
