{
  "AcquisitionMatrixPE": 96,
  "AcquisitionNumber": 1,
  "AcquisitionTime": "18:43:26.002500",
  "BandwidthPerPixelPhaseEncode": 18.939,
  "BaseResolution": 96,
  "BodyPartExamined": "BRAIN",
  "ConsistencyInfo": "N4_VE11C_LATEST_20160120",
  "ConversionSoftware": "dcm2niix",
  "ConversionSoftwareVersion": "v1.0.20190902",
  "DerivedVendorReportedEchoSpacing": 0.000550011,
  "DeviceSerialNumber": "66112",
  "DwellTime": 2.2e-06,
  "EchoTime": 0.033,
  "EchoTrainLength": 96,
  "EffectiveEchoSpacing": 0.000550011,
  "FlipAngle": 59,
  "ImageOrientationPatientDICOM": [1, 0, 2.423e-12, 0, 1, 3.144e-12],
  "ImageType": [
    "ORIGINAL",
    "PRIMARY",
    "FMRI",
    "NONE",
    "ND",
    "NORM",
    "MOSAIC"
],
  "ImagingFrequency": 123.252,
  "InPlanePhaseEncodingDirectionDICOM": "COL",
  "InstitutionAddress": "Maynard_3_Hanover_NH_US_03755",
  "InstitutionName": "Dartmouth_College_-_PBS",
  "InstitutionalDepartmentName": "Department",
  "MRAcquisitionType": "2D",
  "MagneticFieldStrength": 3,
  "Manufacturer": "Siemens",
  "ManufacturersModelName": "Prisma",
  "Modality": "MR",
  "MultibandAccelerationFactor": 4,
  "PartialFourier": 1,
  "PatientPosition": "HFS",
  "PercentPhaseFOV": 100,
  "PhaseEncodingDirection": "j-",
  "PhaseEncodingSteps": 96,
  "PhaseResolution": 1,
  "PixelBandwidth": 2365,
  "ProcedureStepDescription": "Gobbini_Matteo_1037_budapest",
  "ProtocolName": "func_run-03_task-movie",
  "PulseSequenceDetails": "%SiemensSeq%_ep2d_bold",
  "ReceiveCoilActiveElements": "HEA;HEP",
  "ReceiveCoilName": "Head_32",
  "ReconMatrixPE": 96,
  "RefLinesPE": 12,
  "RepetitionTime": 1,
  "SAR": 0.0446267,
  "ScanOptions": "FS",
  "ScanningSequence": "EP",
  "SequenceName": "_epfid2d1_96",
  "SequenceVariant": "SK",
  "SeriesDescription": "func_run-03_task-movie",
  "SeriesNumber": 22,
  "ShimSetting": [4130, -7727, -7357, 892, -25, -260, -13, 183],
  "SliceThickness": 2.5,
  "SliceTiming": [0.735, 0, 0.49, 0.0825, 0.5725, 0.165, 0.655, 0.3275, 0.8175, 0.41, 0.9, 0.245, 0.735, 0, 0.49, 0.0825, 0.5725, 0.165, 0.655, 0.3275, 0.8175, 0.41, 0.9, 0.245, 0.735, 0, 0.49, 0.0825, 0.5725, 0.165, 0.655, 0.3275, 0.8175, 0.41, 0.9, 0.245, 0.735, 0, 0.49, 0.0825, 0.5725, 0.165, 0.655, 0.3275, 0.8175, 0.41, 0.9, 0.245],
  "SoftwareVersions": "syngo_MR_E11",
  "SpacingBetweenSlices": 2.5,
  "StationName": "AWP66112",
  "TaskName": "movie",
  "TotalReadoutTime": 0.0522511,
  "TxRefAmp": 234.69,
  "dcmmeta_affine": [
    [-2.5, 0.0, 6.0574999877216484e-12, 120.63999938964844],
    [0.0, 2.5, 7.859999977266607e-12, -110.45999908447266],
    [6.0574999877216484e-12, -7.859999977266607e-12, 2.5, -83.70999908447266],
    [0.0, 0.0, 0.0, 1.0]
],
  "dcmmeta_reorient_transform": [
    [0.0, -1.0, 0.0, 95.0],
    [1.0, 0.0, 0.0, 0.0],
    [0.0, 0.0, 1.0, 0.0],
    [0.0, 0.0, 0.0, 1.0]
],
  "dcmmeta_shape": [96, 96, 48, 535],
  "dcmmeta_slice_dim": 2,
  "dcmmeta_version": 0.6,
  "global": {
    "const": {
      "AccessionNumber": "A001467",
      "AcquisitionMatrix": [96, 0, 0, 96],
      "AngioFlag": "N",
      "BitsAllocated": 16,
      "BitsStored": 12,
      "BodyPartExamined": "BRAIN",
      "Columns": 672,
      "EchoNumbers": 1,
      "EchoTime": 33.0,
      "EchoTrainLength": 96,
      "FlipAngle": 59.0,
      "HighBit": 11,
      "ImageOrientationPatient": [1.0, 0.0, 2.423e-12, 0.0, 1.0, 3.144e-12],
      "ImagePositionPatient": [-840.63999998569, -847.03999996185, -83.709999089149],
      "ImageType": [
        "ORIGINAL",
        "PRIMARY",
        "FMRI",
        "NONE",
        "ND",
        "NORM",
        "MOSAIC"
],
      "ImagedNucleus": "1H",
      "ImagingFrequency": 123.25233,
      "InPlanePhaseEncodingDirection": "COL",
      "MRAcquisitionType": "2D",
      "MagneticFieldStrength": 3.0,
      "Manufacturer": "SIEMENS",
      "ManufacturerModelName": "Prisma",
      "Modality": "MR",
      "NumberOfAverages": 1.0,
      "NumberOfPhaseEncodingSteps": 96,
      "PercentPhaseFieldOfView": 100.0,
      "PercentSampling": 100.0,
      "PerformedProcedureStepStartTime": "180647.636000",
      "PhotometricInterpretation": "MONOCHROME2",
      "PixelBandwidth": 2365.0,
      "PixelRepresentation": 0,
      "PixelSpacing": [2.5, 2.5],
      "ProtocolName": "func_run-03_task-movie",
      "RepetitionTime": 1000.0,
      "Rows": 672,
      "SAR": 0.04462667565509,
      "SamplesPerPixel": 1,
      "ScanOptions": "FS",
      "ScanningSequence": "EP",
      "SequenceName": "*epfid2d1_96",
      "SequenceVariant": "SK",
      "SeriesDescription": "func_run-03_task-movie",
      "SeriesNumber": 22,
      "SeriesTime": "184327.357000",
      "SliceLocation": -83.709999084449,
      "SliceThickness": 2.5,
      "SmallestImagePixelValue": 0,
      "SoftwareVersions": "syngo MR E11",
      "SpacingBetweenSlices": 2.5,
      "SpecificCharacterSet": "ISO_IR 100",
      "StudyID": "1",
      "StudyTime": "180647.584000",
      "TransmitCoilName": "Body",
      "VariableFlipAngleFlag": "N",
      "WindowCenterWidthExplanation": "Algo1",
      "dBdt": 0.0},
    "slices": {}
  },
  "time": {
    "samples": {
      "AcquisitionNumber": [1, 2, 3, 4, 5, 6, 7, 8, 9, 10, 11, 12, 13, 14, 15, 16, 17, 18, 19, 20, 21, 22, 23, 24, 25, 26, 27, 28, 29, 30, 31, 32, 33, 34, 35, 36, 37, 38, 39, 40, 41, 42, 43, 44, 45, 46, 47, 48, 49, 50, 51, 52, 53, 54, 55, 56, 57, 58, 59, 60, 61, 62, 63, 64, 65, 66, 67, 68, 69, 70, 71, 72, 73, 74, 75, 76, 77, 78, 79, 80, 81, 82, 83, 84, 85, 86, 87, 88, 89, 90, 91, 92, 93, 94, 95, 96, 97, 98, 99, 100, 101, 102, 103, 104, 105, 106, 107, 108, 109, 110, 111, 112, 113, 114, 115, 116, 117, 118, 119, 120, 121, 122, 123, 124, 125, 126, 127, 128, 129, 130, 131, 132, 133, 134, 135, 136, 137, 138, 139, 140, 141, 142, 143, 144, 145, 146, 147, 148, 149, 150, 151, 152, 153, 154, 155, 156, 157, 158, 159, 160, 161, 162, 163, 164, 165, 166, 167, 168, 169, 170, 171, 172, 173, 174, 175, 176, 177, 178, 179, 180, 181, 182, 183, 184, 185, 186, 187, 188, 189, 190, 191, 192, 193, 194, 195, 196, 197, 198, 199, 200, 201, 202, 203, 204, 205, 206, 207, 208, 209, 210, 211, 212, 213, 214, 215, 216, 217, 218, 219, 220, 221, 222, 223, 224, 225, 226, 227, 228, 229, 230, 231, 232, 233, 234, 235, 236, 237, 238, 239, 240, 241, 242, 243, 244, 245, 246, 247, 248, 249, 250, 251, 252, 253, 254, 255, 256, 257, 258, 259, 260, 261, 262, 263, 264, 265, 266, 267, 268, 269, 270, 271, 272, 273, 274, 275, 276, 277, 278, 279, 280, 281, 282, 283, 284, 285, 286, 287, 288, 289, 290, 291, 292, 293, 294, 295, 296, 297, 298, 299, 300, 301, 302, 303, 304, 305, 306, 307, 308, 309, 310, 311, 312, 313, 314, 315, 316, 317, 318, 319, 320, 321, 322, 323, 324, 325, 326, 327, 328, 329, 330, 331, 332, 333, 334, 335, 336, 337, 338, 339, 340, 341, 342, 343, 344, 345, 346, 347, 348, 349, 350, 351, 352, 353, 354, 355, 356, 357, 358, 359, 360, 361, 362, 363, 364, 365, 366, 367, 368, 369, 370, 371, 372, 373, 374, 375, 376, 377, 378, 379, 380, 381, 382, 383, 384, 385, 386, 387, 388, 389, 390, 391, 392, 393, 394, 395, 396, 397, 398, 399, 400, 401, 402, 403, 404, 405, 406, 407, 408, 409, 410, 411, 412, 413, 414, 415, 416, 417, 418, 419, 420, 421, 422, 423, 424, 425, 426, 427, 428, 429, 430, 431, 432, 433, 434, 435, 436, 437, 438, 439, 440, 441, 442, 443, 444, 445, 446, 447, 448, 449, 450, 451, 452, 453, 454, 455, 456, 457, 458, 459, 460, 461, 462, 463, 464, 465, 466, 467, 468, 469, 470, 471, 472, 473, 474, 475, 476, 477, 478, 479, 480, 481, 482, 483, 484, 485, 486, 487, 488, 489, 490, 491, 492, 493, 494, 495, 496, 497, 498, 499, 500, 501, 502, 503, 504, 505, 506, 507, 508, 509, 510, 511, 512, 513, 514, 515, 516, 517, 518, 519, 520, 521, 522, 523, 524, 525, 526, 527, 528, 529, 530, 531, 532, 533, 534, 535],
      "AcquisitionTime": ["184326.002500", "184327.002500", "184328.002500", "184329.002500", "184330.002500", "184331.002500", "184332.002500", "184333.002500", "184334.002500", "184335.002500", "184336.002500", "184337.002500", "184338.002500", "184339.002500", "184340.002500", "184341.002500", "184342.002500", "184343.002500", "184344.002500", "184345.002500", "184346.002500", "184347.002500", "184348.002500", "184349.002500", "184350.002500", "184351.002500", "184352.002500", "184353.002500", "184354.002500", "184355.002500", "184356.002500", "184357.002500", "184358.002500", "184359.002500", "184400.002500", "184401.002500", "184402.002500", "184403.002500", "184404.002500", "184405.002500", "184406.002500", "184407.002500", "184408.002500", "184409.002500", "184410.002500", "184411.002500", "184412.002500", "184413.002500", "184414.002500", "184415.002500", "184416.002500", "184417.002500", "184418.002500", "184419.002500", "184420.002500", "184421.002500", "184422.002500", "184423.002500", "184424.002500", "184425.002500", "184426.002500", "184427.002500", "184428.002500", "184429.002500", "184430.002500", "184431.002500", "184432.002500", "184433.002500", "184434.002500", "184435.002500", "184436.002500", "184437.002500", "184438.002500", "184439.002500", "184440.002500", "184441.002500", "184442.002500", "184443.002500", "184444.002500", "184445.002500", "184446.002500", "184447.002500", "184448.002500", "184449.002500", "184450.002500", "184451.002500", "184452.002500", "184453.002500", "184454.002500", "184455.002500", "184456.002500", "184457.002500", "184458.002500", "184459.002500", "184500.002500", "184501.002500", "184502.002500", "184503.002500", "184504.002500", "184505.002500", "184506.002500", "184507.002500", "184508.002500", "184509.002500", "184510.002500", "184511.002500", "184512.002500", "184513.002500", "184514.002500", "184515.002500", "184516.002500", "184517.002500", "184518.002500", "184519.002500", "184520.002500", "184521.002500", "184522.002500", "184523.002500", "184524.002500", "184525.002500", "184526.002500", "184527.002500", "184528.002500", "184529.002500", "184530.002500", "184531.002500", "184532.002500", "184533.002500", "184534.002500", "184535.002500", "184536.002500", "184537.002500", "184538.002500", "184539.002500", "184540.002500", "184541.002500", "184542.002500", "184543.002500", "184544.002500", "184545.002500", "184546.002500", "184547.002500", "184548.002500", "184549.002500", "184550.002500", "184551.002500", "184552.002500", "184553.002500", "184554.002500", "184555.002500", "184556.002500", "184557.002500", "184558.002500", "184559.002500", "184600.002500", "184601.002500", "184602.002500", "184603.002500", "184604.002500", "184605.002500", "184606.002500", "184607.002500", "184608.002500", "184609.002500", "184610.002500", "184611.002500", "184612.002500", "184613.002500", "184614.002500", "184615.002500", "184616.002500", "184617.002500", "184618.002500", "184619.002500", "184620.002500", "184621.002500", "184622.002500", "184623.002500", "184624.002500", "184625.002500", "184626.002500", "184627.002500", "184628.002500", "184629.002500", "184630.002500", "184631.002500", "184632.002500", "184633.002500", "184634.002500", "184635.002500", "184636.002500", "184637.002500", "184638.002500", "184639.002500", "184640.002500", "184641.002500", "184642.002500", "184643.002500", "184644.002500", "184645.002500", "184646.002500", "184647.002500", "184648.002500", "184649.002500", "184650.002500", "184651.002500", "184652.002500", "184653.002500", "184654.002500", "184655.002500", "184656.002500", "184657.002500", "184658.002500", "184659.002500", "184700.002500", "184701.002500", "184702.002500", "184703.002500", "184704.002500", "184705.002500", "184706.002500", "184707.002500", "184708.002500", "184709.002500", "184710.002500", "184711.002500", "184712.002500", "184713.002500", "184714.002500", "184715.002500", "184716.002500", "184717.002500", "184718.002500", "184719.002500", "184720.002500", "184721.002500", "184722.002500", "184723.002500", "184724.002500", "184725.002500", "184726.002500", "184727.002500", "184728.002500", "184729.002500", "184730.002500", "184731.002500", "184732.002500", "184733.002500", "184734.002500", "184735.002500", "184736.002500", "184737.002500", "184738.002500", "184739.002500", "184740.002500", "184741.002500", "184742.002500", "184743.002500", "184744.002500", "184745.002500", "184746.002500", "184747.002500", "184748.002500", "184749.002500", "184750.002500", "184751.002500", "184752.002500", "184753.002500", "184754.002500", "184755.002500", "184756.002500", "184757.002500", "184758.002500", "184759.002500", "184800.002500", "184801.002500", "184802.002500", "184803.002500", "184804.002500", "184805.002500", "184806.002500", "184807.002500", "184808.002500", "184809.002500", "184810.002500", "184811.002500", "184812.002500", "184813.002500", "184814.002500", "184815.002500", "184816.002500", "184817.002500", "184818.002500", "184819.002500", "184820.002500", "184821.002500", "184822.002500", "184823.002500", "184824.002500", "184825.002500", "184826.002500", "184827.002500", "184828.002500", "184829.002500", "184830.002500", "184831.002500", "184832.002500", "184833.002500", "184834.002500", "184835.002500", "184836.002500", "184837.002500", "184838.002500", "184839.002500", "184840.002500", "184841.002500", "184842.002500", "184843.002500", "184844.002500", "184845.002500", "184846.002500", "184847.002500", "184848.002500", "184849.002500", "184850.002500", "184851.002500", "184852.002500", "184853.002500", "184854.002500", "184855.002500", "184856.002500", "184857.002500", "184858.002500", "184859.002500", "184900.002500", "184901.002500", "184902.002500", "184903.002500", "184904.002500", "184905.002500", "184906.002500", "184907.002500", "184908.002500", "184909.002500", "184910.002500", "184911.002500", "184912.002500", "184913.002500", "184914.002500", "184915.002500", "184916.002500", "184917.002500", "184918.002500", "184919.002500", "184920.002500", "184921.002500", "184922.002500", "184923.002500", "184924.002500", "184925.002500", "184926.002500", "184927.002500", "184928.002500", "184929.002500", "184930.002500", "184931.002500", "184932.002500", "184933.002500", "184934.002500", "184935.002500", "184936.002500", "184937.002500", "184938.002500", "184939.002500", "184940.002500", "184941.002500", "184942.002500", "184943.002500", "184944.002500", "184945.002500", "184946.002500", "184947.002500", "184948.002500", "184949.002500", "184950.002500", "184951.002500", "184952.002500", "184953.002500", "184954.002500", "184955.002500", "184956.002500", "184957.002500", "184958.002500", "184959.002500", "185000.002500", "185001.002500", "185002.002500", "185003.002500", "185004.002500", "185005.002500", "185006.002500", "185007.002500", "185008.002500", "185009.002500", "185010.002500", "185011.002500", "185012.002500", "185013.002500", "185014.002500", "185015.002500", "185016.002500", "185017.002500", "185018.002500", "185019.002500", "185020.002500", "185021.002500", "185022.002500", "185023.002500", "185024.002500", "185025.002500", "185026.002500", "185027.002500", "185028.002500", "185029.002500", "185030.002500", "185031.002500", "185032.002500", "185033.002500", "185034.002500", "185035.002500", "185036.002500", "185037.002500", "185038.002500", "185039.002500", "185040.002500", "185041.002500", "185042.002500", "185043.002500", "185044.002500", "185045.002500", "185046.002500", "185047.002500", "185048.002500", "185049.002500", "185050.002500", "185051.002500", "185052.002500", "185053.002500", "185054.002500", "185055.002500", "185056.002500", "185057.002500", "185058.002500", "185059.002500", "185100.002500", "185101.002500", "185102.002500", "185103.002500", "185104.002500", "185105.002500", "185106.002500", "185107.002500", "185108.002500", "185109.002500", "185110.002500", "185111.002500", "185112.002500", "185113.002500", "185114.002500", "185115.002500", "185116.002500", "185117.002500", "185118.002500", "185119.002500", "185120.002500", "185121.002500", "185122.002500", "185123.002500", "185124.002500", "185125.002500", "185126.002500", "185127.002500", "185128.002500", "185129.002500", "185130.002500", "185131.002500", "185132.002500", "185133.002500", "185134.002500", "185135.002500", "185136.002500", "185137.002500", "185138.002500", "185139.002500", "185140.002500", "185141.002500", "185142.002500", "185143.002500", "185144.002500", "185145.002500", "185146.002500", "185147.002500", "185148.002500", "185149.002500", "185150.002500", "185151.002500", "185152.002500", "185153.002500", "185154.002500", "185155.002500", "185156.002500", "185157.002500", "185158.002500", "185159.002500", "185200.002500", "185201.002500", "185202.002500", "185203.002500", "185204.002500", "185205.002500", "185206.002500", "185207.002500", "185208.002500", "185209.002500", "185210.002500", "185211.002500", "185212.002500", "185213.002500", "185214.002500", "185215.002500", "185216.002500", "185217.002500", "185218.002500", "185219.002500", "185220.002500"],
      "ContentTime": ["184327.361000", "184328.164000", "184329.184000", "184330.189000", "184331.219000", "184332.186000", "184333.180000", "184334.174000", "184335.166000", "184336.176000", "184337.178000", "184338.251000", "184339.166000", "184340.193000", "184341.175000", "184342.218000", "184343.170000", "184344.202000", "184345.164000", "184346.198000", "184347.201000", "184348.192000", "184349.180000", "184350.169000", "184351.191000", "184352.227000", "184353.191000", "184354.200000", "184355.184000", "184356.182000", "184357.200000", "184358.190000", "184359.185000", "184400.197000", "184401.240000", "184402.260000", "184403.164000", "184404.175000", "184405.219000", "184406.186000", "184407.269000", "184408.190000", "184409.183000", "184410.181000", "184411.212000", "184412.188000", "184413.215000", "184414.209000", "184415.167000", "184416.172000", "184417.197000", "184418.181000", "184419.196000", "184420.169000", "184421.173000", "184422.225000", "184423.217000", "184424.208000", "184425.206000", "184426.180000", "184427.221000", "184428.175000", "184429.226000", "184430.219000", "184431.156000", "184432.179000", "184433.161000", "184434.202000", "184435.169000", "184436.172000", "184437.231000", "184438.213000", "184439.171000", "184440.165000", "184441.215000", "184442.173000", "184443.169000", "184444.195000", "184445.165000", "184446.171000", "184447.178000", "184448.214000", "184449.182000", "184450.222000", "184451.198000", "184452.185000", "184453.224000", "184454.192000", "184455.263000", "184456.190000", "184457.175000", "184458.234000", "184459.203000", "184500.211000", "184501.178000", "184502.205000", "184503.166000", "184504.182000", "184505.230000", "184506.220000", "184507.197000", "184508.181000", "184509.183000", "184510.266000", "184511.188000", "184512.187000", "184513.202000", "184514.229000", "184515.248000", "184516.176000", "184517.204000", "184518.176000", "184519.180000", "184520.185000", "184521.253000", "184522.205000", "184523.197000", "184524.200000", "184525.205000", "184526.171000", "184527.197000", "184528.213000", "184529.173000", "184530.217000", "184531.260000", "184532.224000", "184533.198000", "184534.228000", "184535.176000", "184536.178000", "184537.182000", "184538.198000", "184539.179000", "184540.221000", "184541.251000", "184542.233000", "184543.206000", "184544.205000", "184545.355000", "184546.181000", "184547.220000", "184548.176000", "184549.202000", "184550.181000", "184551.188000", "184552.220000", "184553.242000", "184554.177000", "184555.202000", "184556.180000", "184557.259000", "184558.197000", "184559.183000", "184600.166000", "184601.167000", "184602.218000", "184603.187000", "184604.155000", "184605.219000", "184606.202000", "184607.215000", "184608.201000", "184609.217000", "184610.201000", "184611.226000", "184612.244000", "184613.208000", "184614.186000", "184615.188000", "184616.213000", "184617.212000", "184618.187000", "184619.239000", "184620.247000", "184621.219000", "184622.194000", "184623.258000", "184624.178000", "184625.221000", "184626.183000", "184627.184000", "184628.202000", "184629.199000", "184630.190000", "184631.158000", "184632.176000", "184633.165000", "184634.202000", "184635.232000", "184636.186000", "184637.207000", "184638.180000", "184639.332000", "184640.168000", "184641.176000", "184642.179000", "184643.197000", "184644.192000", "184645.178000", "184646.178000", "184647.219000", "184648.176000", "184649.208000", "184650.172000", "184651.171000", "184652.174000", "184653.186000", "184654.215000", "184655.176000", "184656.202000", "184657.196000", "184658.192000", "184659.217000", "184700.200000", "184701.170000", "184702.166000", "184703.218000", "184704.229000", "184705.239000", "184706.180000", "184707.218000", "184708.178000", "184709.173000", "184710.195000", "184711.235000", "184712.175000", "184713.179000", "184714.187000", "184715.196000", "184716.183000", "184717.181000", "184718.196000", "184719.233000", "184720.172000", "184721.179000", "184722.159000", "184723.196000", "184724.165000", "184725.158000", "184726.206000", "184727.203000", "184728.160000", "184729.193000", "184730.233000", "184731.171000", "184732.253000", "184733.206000", "184734.192000", "184735.198000", "184736.214000", "184737.235000", "184738.205000", "184739.220000", "184740.218000", "184741.198000", "184742.198000", "184743.192000", "184744.178000", "184745.218000", "184746.186000", "184747.164000", "184748.197000", "184749.208000", "184750.223000", "184751.158000", "184752.146000", "184753.200000", "184754.170000", "184755.187000", "184756.198000", "184757.146000", "184758.190000", "184759.207000", "184800.146000", "184801.177000", "184802.189000", "184803.194000", "184804.168000", "184805.221000", "184806.185000", "184807.196000", "184808.181000", "184809.202000", "184810.234000", "184811.190000", "184812.196000", "184813.159000", "184814.146000", "184815.200000", "184816.196000", "184817.216000", "184818.198000", "184819.202000", "184820.183000", "184821.234000", "184822.185000", "184823.186000", "184824.191000", "184825.214000", "184826.150000", "184827.197000", "184828.192000", "184829.192000", "184830.149000", "184831.193000", "184832.190000", "184833.174000", "184834.210000", "184835.153000", "184836.225000", "184837.204000", "184838.179000", "184839.210000", "184840.218000", "184841.233000", "184842.230000", "184843.208000", "184844.181000", "184845.206000", "184846.221000", "184847.207000", "184848.181000", "184849.207000", "184850.214000", "184851.222000", "184852.194000", "184853.209000", "184854.157000", "184855.176000", "184856.191000", "184857.223000", "184858.180000", "184859.194000", "184900.174000", "184901.235000", "184902.188000", "184903.209000", "184904.209000", "184905.225000", "184906.196000", "184907.214000", "184908.209000", "184909.165000", "184910.176000", "184911.202000", "184912.188000", "184913.153000", "184914.180000", "184915.191000", "184916.200000", "184917.156000", "184918.194000", "184919.157000", "184920.176000", "184921.197000", "184922.183000", "184923.214000", "184924.192000", "184925.174000", "184926.184000", "184927.214000", "184928.184000", "184929.233000", "184930.220000", "184931.217000", "184932.211000", "184933.235000", "184934.185000", "184935.185000", "184936.155000", "184937.228000", "184938.184000", "184939.163000", "184940.191000", "184941.218000", "184942.222000", "184943.201000", "184944.173000", "184945.209000", "184946.178000", "184947.138000", "184948.172000", "184949.210000", "184950.174000", "184951.216000", "184952.183000", "184953.207000", "184954.203000", "184955.243000", "184956.172000", "184957.156000", "184958.177000", "184959.176000", "185000.226000", "185001.185000", "185002.177000", "185003.157000", "185004.170000", "185005.277000", "185006.181000", "185007.228000", "185008.187000", "185009.241000", "185010.142000", "185011.177000", "185012.167000", "185013.196000", "185014.165000", "185015.187000", "185016.173000", "185017.209000", "185018.179000", "185019.188000", "185020.163000", "185021.240000", "185022.189000", "185023.181000", "185024.182000", "185025.174000", "185026.160000", "185027.232000", "185028.190000", "185029.167000", "185030.213000", "185031.144000", "185032.143000", "185033.177000", "185034.205000", "185035.253000", "185036.183000", "185037.178000", "185038.191000", "185039.202000", "185040.135000", "185041.171000", "185042.183000", "185043.203000", "185044.219000", "185045.177000", "185046.152000", "185047.223000", "185048.165000", "185049.196000", "185050.174000", "185051.242000", "185052.188000", "185053.191000", "185054.167000", "185055.181000", "185056.161000", "185057.185000", "185058.192000", "185059.236000", "185100.218000", "185101.202000", "185102.178000", "185103.194000", "185104.189000", "185105.171000", "185106.175000", "185107.184000", "185108.165000", "185109.208000", "185110.156000", "185111.203000", "185112.213000", "185113.201000", "185114.173000", "185115.185000", "185116.191000", "185117.148000", "185118.192000", "185119.146000", "185120.166000", "185121.149000", "185122.244000", "185123.236000", "185124.175000", "185125.201000", "185126.169000", "185127.177000", "185128.176000", "185129.216000", "185130.138000", "185131.173000", "185132.179000", "185133.184000", "185134.176000", "185135.243000", "185136.204000", "185137.210000", "185138.231000", "185139.271000", "185140.207000", "185141.222000", "185142.219000", "185143.219000", "185144.237000", "185145.225000", "185146.233000", "185147.235000", "185148.229000", "185149.270000", "185150.222000", "185151.224000", "185152.208000", "185153.277000", "185154.234000", "185155.214000", "185156.233000", "185157.245000", "185158.221000", "185159.261000", "185200.218000", "185201.274000", "185202.236000", "185203.254000", "185204.250000", "185205.235000", "185206.236000", "185207.249000", "185208.244000", "185209.234000", "185210.218000", "185211.270000", "185212.206000", "185213.240000", "185214.219000", "185215.258000", "185216.222000", "185217.214000", "185218.215000", "185219.224000", "185220.214000", "185221.207000"],
