{
  "AcquisitionMatrixPE": 96,
  "AcquisitionNumber": 1,
  "AcquisitionTime": "18:34:38.060000",
  "BandwidthPerPixelPhaseEncode": 18.939,
  "BaseResolution": 96,
  "BodyPartExamined": "BRAIN",
  "ConsistencyInfo": "N4_VE11C_LATEST_20160120",
  "ConversionSoftware": "dcm2niix",
  "ConversionSoftwareVersion": "v1.0.20190902",
  "DerivedVendorReportedEchoSpacing": 0.000550011,
  "DeviceSerialNumber": "66112",
  "DwellTime": 2.2e-06,
  "EchoTime": 0.033,
  "EchoTrainLength": 96,
  "EffectiveEchoSpacing": 0.000550011,
  "FlipAngle": 59,
  "ImageOrientationPatientDICOM": [1, 0, 2.423e-12, 0, 1, 3.144e-12],
  "ImageType": [
    "ORIGINAL",
    "PRIMARY",
    "FMRI",
    "NONE",
    "ND",
    "NORM",
    "MOSAIC"
],
  "ImagingFrequency": 123.252,
  "InPlanePhaseEncodingDirectionDICOM": "COL",
  "InstitutionAddress": "Maynard_3_Hanover_NH_US_03755",
  "InstitutionName": "Dartmouth_College_-_PBS",
  "InstitutionalDepartmentName": "Department",
  "MRAcquisitionType": "2D",
  "MagneticFieldStrength": 3,
  "Manufacturer": "Siemens",
  "ManufacturersModelName": "Prisma",
  "Modality": "MR",
  "MultibandAccelerationFactor": 4,
  "PartialFourier": 1,
  "PatientPosition": "HFS",
  "PercentPhaseFOV": 100,
  "PhaseEncodingDirection": "j-",
  "PhaseEncodingSteps": 96,
  "PhaseResolution": 1,
  "PixelBandwidth": 2365,
  "ProcedureStepDescription": "Gobbini_Matteo_1037_budapest",
  "ProtocolName": "func_run-02_task-movie",
  "PulseSequenceDetails": "%SiemensSeq%_ep2d_bold",
  "ReceiveCoilActiveElements": "HEA;HEP",
  "ReceiveCoilName": "Head_32",
  "ReconMatrixPE": 96,
  "RefLinesPE": 12,
  "RepetitionTime": 1,
  "SAR": 0.0446067,
  "ScanOptions": "FS",
  "ScanningSequence": "EP",
  "SequenceName": "_epfid2d1_96",
  "SequenceVariant": "SK",
  "SeriesDescription": "func_run-02_task-movie",
  "SeriesNumber": 15,
  "ShimSetting": [4130, -7727, -7357, 892, -25, -260, -13, 183],
  "SliceThickness": 2.5,
  "SliceTiming": [0.735, 0, 0.49, 0.08, 0.57, 0.1625, 0.6525, 0.325, 0.815, 0.4075, 0.8975, 0.245, 0.735, 0, 0.49, 0.08, 0.57, 0.1625, 0.6525, 0.325, 0.815, 0.4075, 0.8975, 0.245, 0.735, 0, 0.49, 0.08, 0.57, 0.1625, 0.6525, 0.325, 0.815, 0.4075, 0.8975, 0.245, 0.735, 0, 0.49, 0.08, 0.57, 0.1625, 0.6525, 0.325, 0.815, 0.4075, 0.8975, 0.245],
  "SoftwareVersions": "syngo_MR_E11",
  "SpacingBetweenSlices": 2.5,
  "StationName": "AWP66112",
  "TaskName": "movie",
  "TotalReadoutTime": 0.0522511,
  "TxRefAmp": 234.69,
  "dcmmeta_affine": [
    [-2.5, 0.0, 6.0574999877216484e-12, 120.63999938964844],
    [0.0, 2.5, 7.859999977266607e-12, -110.45999908447266],
    [6.0574999877216484e-12, -7.859999977266607e-12, 2.5, -83.70999908447266],
    [0.0, 0.0, 0.0, 1.0]
],
  "dcmmeta_reorient_transform": [
    [0.0, -1.0, 0.0, 95.0],
    [1.0, 0.0, 0.0, 0.0],
    [0.0, 0.0, 1.0, 0.0],
    [0.0, 0.0, 0.0, 1.0]
],
  "dcmmeta_shape": [96, 96, 48, 498],
  "dcmmeta_slice_dim": 2,
  "dcmmeta_version": 0.6,
  "global": {
    "const": {
      "AccessionNumber": "A001467",
      "AcquisitionMatrix": [96, 0, 0, 96],
      "AngioFlag": "N",
      "BitsAllocated": 16,
      "BitsStored": 12,
      "BodyPartExamined": "BRAIN",
      "Columns": 672,
      "EchoNumbers": 1,
      "EchoTime": 33.0,
      "EchoTrainLength": 96,
      "FlipAngle": 59.0,
      "HighBit": 11,
      "ImageOrientationPatient": [1.0, 0.0, 2.423e-12, 0.0, 1.0, 3.144e-12],
      "ImagePositionPatient": [-840.63999998569, -847.03999996185, -83.709999089149],
      "ImageType": [
        "ORIGINAL",
        "PRIMARY",
        "FMRI",
        "NONE",
        "ND",
        "NORM",
        "MOSAIC"
],
      "ImagedNucleus": "1H",
      "ImagingFrequency": 123.252324,
      "InPlanePhaseEncodingDirection": "COL",
      "MRAcquisitionType": "2D",
      "MagneticFieldStrength": 3.0,
      "Manufacturer": "SIEMENS",
      "ManufacturerModelName": "Prisma",
      "Modality": "MR",
      "NumberOfAverages": 1.0,
      "NumberOfPhaseEncodingSteps": 96,
      "PercentPhaseFieldOfView": 100.0,
      "PercentSampling": 100.0,
      "PerformedProcedureStepStartTime": "180647.636000",
      "PhotometricInterpretation": "MONOCHROME2",
      "PixelBandwidth": 2365.0,
      "PixelRepresentation": 0,
      "PixelSpacing": [2.5, 2.5],
      "ProtocolName": "func_run-02_task-movie",
      "RepetitionTime": 1000.0,
      "Rows": 672,
      "SAR": 0.04460673719122,
      "SamplesPerPixel": 1,
      "ScanOptions": "FS",
      "ScanningSequence": "EP",
      "SequenceName": "*epfid2d1_96",
      "SequenceVariant": "SK",
      "SeriesDescription": "func_run-02_task-movie",
      "SeriesNumber": 15,
      "SeriesTime": "183440.734000",
      "SliceLocation": -83.709999084449,
      "SliceThickness": 2.5,
      "SmallestImagePixelValue": 0,
      "SoftwareVersions": "syngo MR E11",
      "SpacingBetweenSlices": 2.5,
      "SpecificCharacterSet": "ISO_IR 100",
      "StudyID": "1",
      "StudyTime": "180647.584000",
      "TransmitCoilName": "Body",
      "VariableFlipAngleFlag": "N",
      "WindowCenterWidthExplanation": "Algo1",
      "dBdt": 0.0},
    "slices": {}
  },
  "time": {
    "samples": {
      "AcquisitionNumber": [1, 2, 3, 4, 5, 6, 7, 8, 9, 10, 11, 12, 13, 14, 15, 16, 17, 18, 19, 20, 21, 22, 23, 24, 25, 26, 27, 28, 29, 30, 31, 32, 33, 34, 35, 36, 37, 38, 39, 40, 41, 42, 43, 44, 45, 46, 47, 48, 49, 50, 51, 52, 53, 54, 55, 56, 57, 58, 59, 60, 61, 62, 63, 64, 65, 66, 67, 68, 69, 70, 71, 72, 73, 74, 75, 76, 77, 78, 79, 80, 81, 82, 83, 84, 85, 86, 87, 88, 89, 90, 91, 92, 93, 94, 95, 96, 97, 98, 99, 100, 101, 102, 103, 104, 105, 106, 107, 108, 109, 110, 111, 112, 113, 114, 115, 116, 117, 118, 119, 120, 121, 122, 123, 124, 125, 126, 127, 128, 129, 130, 131, 132, 133, 134, 135, 136, 137, 138, 139, 140, 141, 142, 143, 144, 145, 146, 147, 148, 149, 150, 151, 152, 153, 154, 155, 156, 157, 158, 159, 160, 161, 162, 163, 164, 165, 166, 167, 168, 169, 170, 171, 172, 173, 174, 175, 176, 177, 178, 179, 180, 181, 182, 183, 184, 185, 186, 187, 188, 189, 190, 191, 192, 193, 194, 195, 196, 197, 198, 199, 200, 201, 202, 203, 204, 205, 206, 207, 208, 209, 210, 211, 212, 213, 214, 215, 216, 217, 218, 219, 220, 221, 222, 223, 224, 225, 226, 227, 228, 229, 230, 231, 232, 233, 234, 235, 236, 237, 238, 239, 240, 241, 242, 243, 244, 245, 246, 247, 248, 249, 250, 251, 252, 253, 254, 255, 256, 257, 258, 259, 260, 261, 262, 263, 264, 265, 266, 267, 268, 269, 270, 271, 272, 273, 274, 275, 276, 277, 278, 279, 280, 281, 282, 283, 284, 285, 286, 287, 288, 289, 290, 291, 292, 293, 294, 295, 296, 297, 298, 299, 300, 301, 302, 303, 304, 305, 306, 307, 308, 309, 310, 311, 312, 313, 314, 315, 316, 317, 318, 319, 320, 321, 322, 323, 324, 325, 326, 327, 328, 329, 330, 331, 332, 333, 334, 335, 336, 337, 338, 339, 340, 341, 342, 343, 344, 345, 346, 347, 348, 349, 350, 351, 352, 353, 354, 355, 356, 357, 358, 359, 360, 361, 362, 363, 364, 365, 366, 367, 368, 369, 370, 371, 372, 373, 374, 375, 376, 377, 378, 379, 380, 381, 382, 383, 384, 385, 386, 387, 388, 389, 390, 391, 392, 393, 394, 395, 396, 397, 398, 399, 400, 401, 402, 403, 404, 405, 406, 407, 408, 409, 410, 411, 412, 413, 414, 415, 416, 417, 418, 419, 420, 421, 422, 423, 424, 425, 426, 427, 428, 429, 430, 431, 432, 433, 434, 435, 436, 437, 438, 439, 440, 441, 442, 443, 444, 445, 446, 447, 448, 449, 450, 451, 452, 453, 454, 455, 456, 457, 458, 459, 460, 461, 462, 463, 464, 465, 466, 467, 468, 469, 470, 471, 472, 473, 474, 475, 476, 477, 478, 479, 480, 481, 482, 483, 484, 485, 486, 487, 488, 489, 490, 491, 492, 493, 494, 495, 496, 497, 498],
      "AcquisitionTime": ["183438.060000", "183439.060000", "183440.060000", "183441.060000", "183442.060000", "183443.060000", "183444.060000", "183445.060000", "183446.060000", "183447.060000", "183448.060000", "183449.060000", "183450.060000", "183451.060000", "183452.060000", "183453.060000", "183454.060000", "183455.060000", "183456.060000", "183457.060000", "183458.060000", "183459.060000", "183500.060000", "183501.060000", "183502.060000", "183503.060000", "183504.060000", "183505.060000", "183506.060000", "183507.060000", "183508.060000", "183509.060000", "183510.060000", "183511.060000", "183512.060000", "183513.060000", "183514.060000", "183515.060000", "183516.060000", "183517.060000", "183518.060000", "183519.060000", "183520.060000", "183521.060000", "183522.060000", "183523.060000", "183524.060000", "183525.060000", "183526.060000", "183527.060000", "183528.060000", "183529.060000", "183530.060000", "183531.060000", "183532.060000", "183533.060000", "183534.060000", "183535.060000", "183536.060000", "183537.060000", "183538.060000", "183539.060000", "183540.060000", "183541.060000", "183542.060000", "183543.060000", "183544.060000", "183545.060000", "183546.060000", "183547.060000", "183548.060000", "183549.060000", "183550.060000", "183551.060000", "183552.060000", "183553.060000", "183554.060000", "183555.060000", "183556.060000", "183557.060000", "183558.060000", "183559.060000", "183600.060000", "183601.060000", "183602.060000", "183603.060000", "183604.060000", "183605.060000", "183606.060000", "183607.060000", "183608.060000", "183609.060000", "183610.060000", "183611.060000", "183612.060000", "183613.060000", "183614.060000", "183615.060000", "183616.060000", "183617.060000", "183618.060000", "183619.060000", "183620.060000", "183621.060000", "183622.060000", "183623.060000", "183624.060000", "183625.060000", "183626.060000", "183627.060000", "183628.060000", "183629.060000", "183630.060000", "183631.060000", "183632.060000", "183633.060000", "183634.060000", "183635.060000", "183636.060000", "183637.060000", "183638.060000", "183639.060000", "183640.060000", "183641.060000", "183642.060000", "183643.060000", "183644.060000", "183645.060000", "183646.060000", "183647.060000", "183648.060000", "183649.060000", "183650.060000", "183651.060000", "183652.060000", "183653.060000", "183654.060000", "183655.060000", "183656.060000", "183657.060000", "183658.060000", "183659.060000", "183700.060000", "183701.060000", "183702.060000", "183703.060000", "183704.060000", "183705.060000", "183706.060000", "183707.060000", "183708.060000", "183709.060000", "183710.060000", "183711.060000", "183712.060000", "183713.060000", "183714.060000", "183715.060000", "183716.060000", "183717.060000", "183718.060000", "183719.060000", "183720.060000", "183721.060000", "183722.060000", "183723.060000", "183724.060000", "183725.060000", "183726.060000", "183727.060000", "183728.060000", "183729.060000", "183730.060000", "183731.060000", "183732.060000", "183733.060000", "183734.060000", "183735.060000", "183736.060000", "183737.060000", "183738.060000", "183739.060000", "183740.060000", "183741.060000", "183742.060000", "183743.060000", "183744.060000", "183745.060000", "183746.060000", "183747.060000", "183748.060000", "183749.060000", "183750.060000", "183751.060000", "183752.060000", "183753.060000", "183754.060000", "183755.060000", "183756.060000", "183757.060000", "183758.060000", "183759.060000", "183800.060000", "183801.060000", "183802.060000", "183803.060000", "183804.060000", "183805.060000", "183806.060000", "183807.060000", "183808.060000", "183809.060000", "183810.060000", "183811.060000", "183812.060000", "183813.060000", "183814.060000", "183815.060000", "183816.060000", "183817.060000", "183818.060000", "183819.060000", "183820.060000", "183821.060000", "183822.060000", "183823.060000", "183824.060000", "183825.060000", "183826.060000", "183827.060000", "183828.060000", "183829.060000", "183830.060000", "183831.060000", "183832.060000", "183833.060000", "183834.060000", "183835.060000", "183836.060000", "183837.060000", "183838.060000", "183839.060000", "183840.060000", "183841.060000", "183842.060000", "183843.060000", "183844.060000", "183845.060000", "183846.060000", "183847.060000", "183848.060000", "183849.060000", "183850.060000", "183851.060000", "183852.060000", "183853.060000", "183854.060000", "183855.060000", "183856.060000", "183857.060000", "183858.060000", "183859.060000", "183900.060000", "183901.060000", "183902.060000", "183903.060000", "183904.060000", "183905.060000", "183906.060000", "183907.060000", "183908.060000", "183909.060000", "183910.060000", "183911.060000", "183912.060000", "183913.060000", "183914.060000", "183915.060000", "183916.060000", "183917.060000", "183918.060000", "183919.060000", "183920.060000", "183921.060000", "183922.060000", "183923.060000", "183924.060000", "183925.060000", "183926.060000", "183927.060000", "183928.060000", "183929.060000", "183930.060000", "183931.060000", "183932.060000", "183933.060000", "183934.060000", "183935.060000", "183936.060000", "183937.060000", "183938.060000", "183939.060000", "183940.060000", "183941.060000", "183942.060000", "183943.060000", "183944.060000", "183945.060000", "183946.060000", "183947.060000", "183948.060000", "183949.060000", "183950.060000", "183951.060000", "183952.060000", "183953.060000", "183954.060000", "183955.060000", "183956.060000", "183957.060000", "183958.060000", "183959.060000", "184000.060000", "184001.060000", "184002.060000", "184003.060000", "184004.060000", "184005.060000", "184006.060000", "184007.060000", "184008.060000", "184009.060000", "184010.060000", "184011.060000", "184012.060000", "184013.060000", "184014.060000", "184015.060000", "184016.060000", "184017.060000", "184018.060000", "184019.060000", "184020.060000", "184021.060000", "184022.060000", "184023.060000", "184024.060000", "184025.060000", "184026.060000", "184027.060000", "184028.060000", "184029.060000", "184030.060000", "184031.060000", "184032.060000", "184033.060000", "184034.060000", "184035.060000", "184036.060000", "184037.060000", "184038.060000", "184039.060000", "184040.060000", "184041.060000", "184042.060000", "184043.060000", "184044.060000", "184045.060000", "184046.060000", "184047.060000", "184048.060000", "184049.060000", "184050.060000", "184051.060000", "184052.060000", "184053.060000", "184054.060000", "184055.060000", "184056.060000", "184057.060000", "184058.060000", "184059.060000", "184100.060000", "184101.060000", "184102.060000", "184103.060000", "184104.060000", "184105.060000", "184106.060000", "184107.060000", "184108.060000", "184109.060000", "184110.060000", "184111.060000", "184112.060000", "184113.060000", "184114.060000", "184115.060000", "184116.060000", "184117.060000", "184118.060000", "184119.060000", "184120.060000", "184121.060000", "184122.060000", "184123.060000", "184124.060000", "184125.060000", "184126.060000", "184127.060000", "184128.060000", "184129.060000", "184130.060000", "184131.060000", "184132.060000", "184133.060000", "184134.060000", "184135.060000", "184136.060000", "184137.060000", "184138.060000", "184139.060000", "184140.060000", "184141.060000", "184142.060000", "184143.060000", "184144.060000", "184145.060000", "184146.060000", "184147.060000", "184148.060000", "184149.060000", "184150.060000", "184151.060000", "184152.060000", "184153.060000", "184154.060000", "184155.060000", "184156.060000", "184157.060000", "184158.060000", "184159.060000", "184200.060000", "184201.060000", "184202.060000", "184203.060000", "184204.060000", "184205.060000", "184206.060000", "184207.060000", "184208.060000", "184209.060000", "184210.060000", "184211.060000", "184212.060000", "184213.060000", "184214.060000", "184215.060000", "184216.060000", "184217.060000", "184218.060000", "184219.060000", "184220.060000", "184221.060000", "184222.060000", "184223.060000", "184224.060000", "184225.060000", "184226.060000", "184227.060000", "184228.060000", "184229.060000", "184230.060000", "184231.060000", "184232.060000", "184233.060000", "184234.060000", "184235.060000", "184236.060000", "184237.060000", "184238.060000", "184239.060000", "184240.060000", "184241.060000", "184242.060000", "184243.060000", "184244.060000", "184245.060000", "184246.060000", "184247.060000", "184248.060000", "184249.060000", "184250.060000", "184251.060000", "184252.060000", "184253.060000", "184254.060000", "184255.060000"],
      "ContentTime": ["183440.739000", "183441.523000", "183442.552000", "183443.574000", "183444.519000", "183445.557000", "183446.589000", "183447.532000", "183448.531000", "183449.550000", "183450.487000", "183451.595000", "183452.518000", "183453.537000", "183454.507000", "183455.515000", "183456.548000", "183457.568000", "183458.532000", "183459.542000", "183500.545000", "183501.547000", "183502.515000", "183503.529000", "183504.512000", "183505.522000", "183506.482000", "183507.499000", "183508.537000", "183509.548000", "183510.534000", "183511.545000", "183512.524000", "183513.539000", "183514.543000", "183515.535000", "183516.511000", "183517.514000", "183518.519000", "183519.565000", "183520.494000", "183521.553000", "183522.503000", "183523.537000", "183524.546000", "183525.524000", "183526.536000", "183527.526000", "183528.511000", "183529.511000", "183530.525000", "183531.513000", "183532.538000", "183533.538000", "183534.500000", "183535.536000", "183536.549000", "183537.552000", "183538.535000", "183539.540000", "183540.530000", "183541.512000", "183542.507000", "183543.513000", "183544.567000", "183545.502000", "183546.515000", "183547.556000", "183548.546000", "183549.492000", "183550.511000", "183551.583000", "183552.572000", "183553.517000", "183554.558000", "183555.535000", "183556.539000", "183557.528000", "183558.523000", "183559.507000", "183600.504000", "183601.475000", "183602.583000", "183603.528000", "183604.514000", "183605.492000", "183606.525000", "183607.486000", "183608.597000", "183609.551000", "183610.520000", "183611.536000", "183612.550000", "183613.488000", "183614.514000", "183615.520000", "183616.515000", "183617.542000", "183618.505000", "183619.508000", "183620.511000", "183621.536000", "183622.554000", "183623.506000", "183624.511000", "183625.570000", "183626.552000", "183627.503000", "183628.521000", "183629.575000", "183630.525000", "183631.525000", "183632.580000", "183633.521000", "183634.573000", "183635.557000", "183636.507000", "183637.550000", "183638.501000", "183639.523000", "183640.477000", "183641.494000", "183642.503000", "183643.497000", "183644.470000", "183645.529000", "183646.528000", "183647.503000", "183648.531000", "183649.504000", "183650.515000", "183651.498000", "183652.523000", "183653.520000", "183654.548000", "183655.527000", "183656.526000", "183657.522000", "183658.520000", "183659.518000", "183700.536000", "183701.530000", "183702.502000", "183703.502000", "183704.514000", "183705.516000", "183706.537000", "183707.573000", "183708.504000", "183709.529000", "183710.521000", "183711.549000", "183712.501000", "183713.531000", "183714.532000", "183715.494000", "183716.525000", "183717.525000", "183718.576000", "183719.514000", "183720.521000", "183721.539000", "183722.512000", "183723.517000", "183724.526000", "183725.557000", "183726.539000", "183727.503000", "183728.509000", "183729.497000", "183730.507000", "183731.483000", "183732.548000", "183733.526000", "183734.503000", "183735.509000", "183736.535000", "183737.511000", "183738.538000", "183739.509000", "183740.503000", "183741.519000", "183742.517000", "183743.525000", "183744.563000", "183745.508000", "183746.525000", "183747.522000", "183748.502000", "183749.524000", "183750.511000", "183751.506000", "183752.536000", "183753.481000", "183754.526000", "183755.564000", "183756.528000", "183757.515000", "183758.496000", "183759.548000", "183800.556000", "183801.524000", "183802.528000", "183803.513000", "183804.542000", "183805.503000", "183806.503000", "183807.537000", "183808.527000", "183809.512000", "183810.517000", "183811.526000", "183812.511000", "183813.503000", "183814.521000", "183815.588000", "183816.522000", "183817.516000", "183818.503000", "183819.556000", "183820.502000", "183821.558000", "183822.516000", "183823.519000", "183824.548000", "183825.530000", "183826.511000", "183827.538000", "183828.517000", "183829.588000", "183830.533000", "183831.517000", "183832.507000", "183833.518000", "183834.467000", "183835.525000", "183836.498000", "183837.514000", "183838.507000", "183839.513000", "183840.492000", "183841.511000", "183842.516000", "183843.527000", "183844.553000", "183845.508000", "183846.521000", "183847.549000", "183848.558000", "183849.540000", "183850.521000", "183851.521000", "183852.517000", "183853.534000", "183854.518000", "183855.516000", "183856.531000", "183857.504000", "183858.490000", "183859.500000", "183900.490000", "183901.504000", "183902.530000", "183903.535000", "183904.521000", "183905.586000", "183906.523000", "183907.518000", "183908.512000", "183909.508000", "183910.500000", "183911.511000", "183912.519000", "183913.551000", "183914.518000", "183915.527000", "183916.527000", "183917.573000", "183918.523000", "183919.511000", "183920.525000", "183921.522000", "183922.520000", "183923.509000", "183924.567000", "183925.523000", "183926.493000", "183927.535000", "183928.512000", "183929.535000", "183930.540000", "183931.529000", "183932.507000", "183933.523000", "183934.543000", "183935.544000", "183936.523000", "183937.530000", "183938.536000", "183939.565000", "183940.508000", "183941.522000", "183942.501000", "183943.516000", "183944.499000", "183945.531000", "183946.508000", "183947.508000", "183948.507000", "183949.533000", "183950.512000", "183951.502000", "183952.468000", "183953.499000", "183954.547000", "183955.524000", "183956.532000", "183957.514000", "183958.517000", "183959.521000", "184000.538000", "184001.475000", "184002.516000", "184003.526000", "184004.544000", "184005.505000", "184006.512000", "184007.520000", "184008.522000", "184009.528000", "184010.570000", "184011.529000", "184012.509000", "184013.511000", "184014.584000", "184015.536000", "184016.504000", "184017.500000", "184018.499000", "184019.515000", "184020.536000", "184021.583000", "184022.538000", "184023.542000", "184024.523000", "184025.538000", "184026.537000", "184027.518000", "184028.517000", "184029.494000", "184030.487000", "184031.565000", "184032.525000", "184033.509000", "184034.547000", "184035.477000", "184036.476000", "184037.510000", "184038.521000", "184039.516000", "184040.514000", "184041.527000", "184042.529000", "184043.538000", "184044.514000", "184045.495000", "184046.545000", "184047.509000", "184048.593000", "184049.526000", "184050.529000", "184051.569000", "184052.544000", "184053.535000", "184054.496000", "184055.526000", "184056.530000", "184057.522000", "184058.512000", "184059.533000", "184100.485000", "184101.551000", "184102.520000", "184103.554000", "184104.519000", "184105.523000", "184106.568000", "184107.567000", "184108.498000", "184109.508000", "184110.523000", "184111.523000", "184112.540000", "184113.510000", "184114.593000", "184115.551000", "184116.515000", "184117.523000", "184118.537000", "184119.500000", "184120.519000", "184121.539000", "184122.521000", "184123.504000", "184124.521000", "184125.531000", "184126.582000", "184127.479000", "184128.511000", "184129.552000", "184130.511000", "184131.500000", "184132.514000", "184133.520000", "184134.489000", "184135.579000", "184136.505000", "184137.506000", "184138.508000", "184139.533000", "184140.505000", "184141.503000", "184142.521000", "184143.515000", "184144.500000", "184145.529000", "184146.549000", "184147.506000", "184148.527000", "184149.526000", "184150.537000", "184151.504000", "184152.556000", "184153.508000", "184154.516000", "184155.485000", "184156.529000", "184157.504000", "184158.516000", "184159.547000", "184200.538000", "184201.506000", "184202.512000", "184203.558000", "184204.528000", "184205.495000", "184206.515000", "184207.494000", "184208.522000", "184209.529000", "184210.507000", "184211.514000", "184212.530000", "184213.535000", "184214.531000", "184215.543000", "184216.510000", "184217.497000", "184218.526000", "184219.573000", "184220.523000", "184221.513000", "184222.485000", "184223.511000", "184224.517000", "184225.476000", "184226.511000", "184227.505000", "184228.516000", "184229.506000", "184230.516000", "184231.515000", "184232.545000", "184233.519000", "184234.564000", "184235.510000", "184236.509000", "184237.529000", "184238.523000", "184239.481000", "184240.503000", "184241.536000", "184242.513000", "184243.569000", "184244.517000", "184245.513000", "184246.509000", "184247.506000", "184248.497000", "184249.519000", "184250.517000", "184251.499000", "184252.517000", "184253.517000", "184254.498000", "184255.510000", "184256.561000", "184257.530000"],
