{
  "AcquisitionMatrixPE": 96,
  "AcquisitionNumber": 1,
  "AcquisitionTime": "19:03:49.900000",
  "BandwidthPerPixelPhaseEncode": 18.939,
  "BaseResolution": 96,
  "BodyPartExamined": "BRAIN",
  "ConsistencyInfo": "N4_VE11C_LATEST_20160120",
  "ConversionSoftware": "dcm2niix",
  "ConversionSoftwareVersion": "v1.0.20190902",
  "DerivedVendorReportedEchoSpacing": 0.000550011,
  "DeviceSerialNumber": "66112",
  "DwellTime": 2.2e-06,
  "EchoTime": 0.033,
  "EchoTrainLength": 96,
  "EffectiveEchoSpacing": 0.000550011,
  "FlipAngle": 59,
  "ImageOrientationPatientDICOM": [1, 0, 2.423e-12, 0, 1, 3.144e-12],
  "ImageType": [
    "ORIGINAL",
    "PRIMARY",
    "FMRI",
    "NONE",
    "ND",
    "NORM",
    "MOSAIC"
],
  "ImagingFrequency": 123.252,
  "InPlanePhaseEncodingDirectionDICOM": "COL",
  "InstitutionAddress": "Maynard_3_Hanover_NH_US_03755",
  "InstitutionName": "Dartmouth_College_-_PBS",
  "InstitutionalDepartmentName": "Department",
  "MRAcquisitionType": "2D",
  "MagneticFieldStrength": 3,
  "Manufacturer": "Siemens",
  "ManufacturersModelName": "Prisma",
  "Modality": "MR",
  "MultibandAccelerationFactor": 4,
  "PartialFourier": 1,
  "PatientPosition": "HFS",
  "PercentPhaseFOV": 100,
  "PhaseEncodingDirection": "j-",
  "PhaseEncodingSteps": 96,
  "PhaseResolution": 1,
  "PixelBandwidth": 2365,
  "ProcedureStepDescription": "Gobbini_Matteo_1037_budapest",
  "ProtocolName": "func_run-05_task-movie",
  "PulseSequenceDetails": "%SiemensSeq%_ep2d_bold",
  "ReceiveCoilActiveElements": "HEA;HEP",
  "ReceiveCoilName": "Head_32",
  "ReconMatrixPE": 96,
  "RefLinesPE": 12,
  "RepetitionTime": 1,
  "SAR": 0.0447169,
  "ScanOptions": "FS",
  "ScanningSequence": "EP",
  "SequenceName": "_epfid2d1_96",
  "SequenceVariant": "SK",
  "SeriesDescription": "func_run-05_task-movie",
  "SeriesNumber": 36,
  "ShimSetting": [4130, -7727, -7357, 892, -25, -260, -13, 183],
  "SliceThickness": 2.5,
  "SliceTiming": [0.735, 0, 0.49, 0.0825, 0.5725, 0.1625, 0.6525, 0.3275, 0.8175, 0.4075, 0.8975, 0.245, 0.735, 0, 0.49, 0.0825, 0.5725, 0.1625, 0.6525, 0.3275, 0.8175, 0.4075, 0.8975, 0.245, 0.735, 0, 0.49, 0.0825, 0.5725, 0.1625, 0.6525, 0.3275, 0.8175, 0.4075, 0.8975, 0.245, 0.735, 0, 0.49, 0.0825, 0.5725, 0.1625, 0.6525, 0.3275, 0.8175, 0.4075, 0.8975, 0.245],
  "SoftwareVersions": "syngo_MR_E11",
  "SpacingBetweenSlices": 2.5,
  "StationName": "AWP66112",
  "TaskName": "movie",
  "TotalReadoutTime": 0.0522511,
  "TxRefAmp": 234.69,
  "dcmmeta_affine": [
    [-2.5, 0.0, 6.0574999877216484e-12, 120.63999938964844],
    [0.0, 2.5, 7.859999977266607e-12, -110.45999908447266],
    [6.0574999877216484e-12, -7.859999977266607e-12, 2.5, -83.70999908447266],
    [0.0, 0.0, 0.0, 1.0]
],
  "dcmmeta_reorient_transform": [
    [0.0, -1.0, 0.0, 95.0],
    [1.0, 0.0, 0.0, 0.0],
    [0.0, 0.0, 1.0, 0.0],
    [0.0, 0.0, 0.0, 1.0]
],
  "dcmmeta_shape": [96, 96, 48, 803],
  "dcmmeta_slice_dim": 2,
  "dcmmeta_version": 0.6,
  "global": {
    "const": {
      "AccessionNumber": "A001467",
      "AcquisitionMatrix": [96, 0, 0, 96],
      "AngioFlag": "N",
      "BitsAllocated": 16,
      "BitsStored": 12,
      "BodyPartExamined": "BRAIN",
      "Columns": 672,
      "EchoNumbers": 1,
      "EchoTime": 33.0,
      "EchoTrainLength": 96,
      "FlipAngle": 59.0,
      "HighBit": 11,
      "ImageOrientationPatient": [1.0, 0.0, 2.423e-12, 0.0, 1.0, 3.144e-12],
      "ImagePositionPatient": [-840.63999998569, -847.03999996185, -83.709999089149],
      "ImageType": [
        "ORIGINAL",
        "PRIMARY",
        "FMRI",
        "NONE",
        "ND",
        "NORM",
        "MOSAIC"
],
      "ImagedNucleus": "1H",
      "ImagingFrequency": 123.252338,
      "InPlanePhaseEncodingDirection": "COL",
      "MRAcquisitionType": "2D",
      "MagneticFieldStrength": 3.0,
      "Manufacturer": "SIEMENS",
      "ManufacturerModelName": "Prisma",
      "Modality": "MR",
      "NumberOfAverages": 1.0,
      "NumberOfPhaseEncodingSteps": 96,
      "PercentPhaseFieldOfView": 100.0,
      "PercentSampling": 100.0,
      "PerformedProcedureStepStartTime": "180647.636000",
      "PhotometricInterpretation": "MONOCHROME2",
      "PixelBandwidth": 2365.0,
      "PixelRepresentation": 0,
      "PixelSpacing": [2.5, 2.5],
      "ProtocolName": "func_run-05_task-movie",
      "RepetitionTime": 1000.0,
      "Rows": 672,
      "SAR": 0.04471686938675,
      "SamplesPerPixel": 1,
      "ScanOptions": "FS",
      "ScanningSequence": "EP",
      "SequenceName": "*epfid2d1_96",
      "SequenceVariant": "SK",
      "SeriesDescription": "func_run-05_task-movie",
      "SeriesNumber": 36,
      "SeriesTime": "190350.814000",
      "SliceLocation": -83.709999084449,
      "SliceThickness": 2.5,
      "SmallestImagePixelValue": 0,
      "SoftwareVersions": "syngo MR E11",
      "SpacingBetweenSlices": 2.5,
      "SpecificCharacterSet": "ISO_IR 100",
      "StudyID": "1",
      "StudyTime": "180647.584000",
      "TransmitCoilName": "Body",
      "VariableFlipAngleFlag": "N",
      "WindowCenterWidthExplanation": "Algo1",
      "dBdt": 0.0},
    "slices": {}
  },
  "time": {
    "samples": {
      "AcquisitionNumber": [1, 2, 3, 4, 5, 6, 7, 8, 9, 10, 11, 12, 13, 14, 15, 16, 17, 18, 19, 20, 21, 22, 23, 24, 25, 26, 27, 28, 29, 30, 31, 32, 33, 34, 35, 36, 37, 38, 39, 40, 41, 42, 43, 44, 45, 46, 47, 48, 49, 50, 51, 52, 53, 54, 55, 56, 57, 58, 59, 60, 61, 62, 63, 64, 65, 66, 67, 68, 69, 70, 71, 72, 73, 74, 75, 76, 77, 78, 79, 80, 81, 82, 83, 84, 85, 86, 87, 88, 89, 90, 91, 92, 93, 94, 95, 96, 97, 98, 99, 100, 101, 102, 103, 104, 105, 106, 107, 108, 109, 110, 111, 112, 113, 114, 115, 116, 117, 118, 119, 120, 121, 122, 123, 124, 125, 126, 127, 128, 129, 130, 131, 132, 133, 134, 135, 136, 137, 138, 139, 140, 141, 142, 143, 144, 145, 146, 147, 148, 149, 150, 151, 152, 153, 154, 155, 156, 157, 158, 159, 160, 161, 162, 163, 164, 165, 166, 167, 168, 169, 170, 171, 172, 173, 174, 175, 176, 177, 178, 179, 180, 181, 182, 183, 184, 185, 186, 187, 188, 189, 190, 191, 192, 193, 194, 195, 196, 197, 198, 199, 200, 201, 202, 203, 204, 205, 206, 207, 208, 209, 210, 211, 212, 213, 214, 215, 216, 217, 218, 219, 220, 221, 222, 223, 224, 225, 226, 227, 228, 229, 230, 231, 232, 233, 234, 235, 236, 237, 238, 239, 240, 241, 242, 243, 244, 245, 246, 247, 248, 249, 250, 251, 252, 253, 254, 255, 256, 257, 258, 259, 260, 261, 262, 263, 264, 265, 266, 267, 268, 269, 270, 271, 272, 273, 274, 275, 276, 277, 278, 279, 280, 281, 282, 283, 284, 285, 286, 287, 288, 289, 290, 291, 292, 293, 294, 295, 296, 297, 298, 299, 300, 301, 302, 303, 304, 305, 306, 307, 308, 309, 310, 311, 312, 313, 314, 315, 316, 317, 318, 319, 320, 321, 322, 323, 324, 325, 326, 327, 328, 329, 330, 331, 332, 333, 334, 335, 336, 337, 338, 339, 340, 341, 342, 343, 344, 345, 346, 347, 348, 349, 350, 351, 352, 353, 354, 355, 356, 357, 358, 359, 360, 361, 362, 363, 364, 365, 366, 367, 368, 369, 370, 371, 372, 373, 374, 375, 376, 377, 378, 379, 380, 381, 382, 383, 384, 385, 386, 387, 388, 389, 390, 391, 392, 393, 394, 395, 396, 397, 398, 399, 400, 401, 402, 403, 404, 405, 406, 407, 408, 409, 410, 411, 412, 413, 414, 415, 416, 417, 418, 419, 420, 421, 422, 423, 424, 425, 426, 427, 428, 429, 430, 431, 432, 433, 434, 435, 436, 437, 438, 439, 440, 441, 442, 443, 444, 445, 446, 447, 448, 449, 450, 451, 452, 453, 454, 455, 456, 457, 458, 459, 460, 461, 462, 463, 464, 465, 466, 467, 468, 469, 470, 471, 472, 473, 474, 475, 476, 477, 478, 479, 480, 481, 482, 483, 484, 485, 486, 487, 488, 489, 490, 491, 492, 493, 494, 495, 496, 497, 498, 499, 500, 501, 502, 503, 504, 505, 506, 507, 508, 509, 510, 511, 512, 513, 514, 515, 516, 517, 518, 519, 520, 521, 522, 523, 524, 525, 526, 527, 528, 529, 530, 531, 532, 533, 534, 535, 536, 537, 538, 539, 540, 541, 542, 543, 544, 545, 546, 547, 548, 549, 550, 551, 552, 553, 554, 555, 556, 557, 558, 559, 560, 561, 562, 563, 564, 565, 566, 567, 568, 569, 570, 571, 572, 573, 574, 575, 576, 577, 578, 579, 580, 581, 582, 583, 584, 585, 586, 587, 588, 589, 590, 591, 592, 593, 594, 595, 596, 597, 598, 599, 600, 601, 602, 603, 604, 605, 606, 607, 608, 609, 610, 611, 612, 613, 614, 615, 616, 617, 618, 619, 620, 621, 622, 623, 624, 625, 626, 627, 628, 629, 630, 631, 632, 633, 634, 635, 636, 637, 638, 639, 640, 641, 642, 643, 644, 645, 646, 647, 648, 649, 650, 651, 652, 653, 654, 655, 656, 657, 658, 659, 660, 661, 662, 663, 664, 665, 666, 667, 668, 669, 670, 671, 672, 673, 674, 675, 676, 677, 678, 679, 680, 681, 682, 683, 684, 685, 686, 687, 688, 689, 690, 691, 692, 693, 694, 695, 696, 697, 698, 699, 700, 701, 702, 703, 704, 705, 706, 707, 708, 709, 710, 711, 712, 713, 714, 715, 716, 717, 718, 719, 720, 721, 722, 723, 724, 725, 726, 727, 728, 729, 730, 731, 732, 733, 734, 735, 736, 737, 738, 739, 740, 741, 742, 743, 744, 745, 746, 747, 748, 749, 750, 751, 752, 753, 754, 755, 756, 757, 758, 759, 760, 761, 762, 763, 764, 765, 766, 767, 768, 769, 770, 771, 772, 773, 774, 775, 776, 777, 778, 779, 780, 781, 782, 783, 784, 785, 786, 787, 788, 789, 790, 791, 792, 793, 794, 795, 796, 797, 798, 799, 800, 801, 802, 803],
      "AcquisitionTime": ["190349.900000", "190350.900000", "190351.900000", "190352.900000", "190353.900000", "190354.900000", "190355.900000", "190356.900000", "190357.900000", "190358.900000", "190359.900000", "190400.900000", "190401.900000", "190402.900000", "190403.900000", "190404.900000", "190405.900000", "190406.900000", "190407.900000", "190408.900000", "190409.900000", "190410.900000", "190411.900000", "190412.900000", "190413.900000", "190414.900000", "190415.900000", "190416.900000", "190417.900000", "190418.900000", "190419.900000", "190420.900000", "190421.900000", "190422.900000", "190423.900000", "190424.900000", "190425.900000", "190426.900000", "190427.900000", "190428.900000", "190429.900000", "190430.900000", "190431.900000", "190432.900000", "190433.900000", "190434.900000", "190435.900000", "190436.900000", "190437.900000", "190438.900000", "190439.900000", "190440.900000", "190441.900000", "190442.900000", "190443.900000", "190444.900000", "190445.900000", "190446.900000", "190447.900000", "190448.900000", "190449.900000", "190450.900000", "190451.900000", "190452.900000", "190453.900000", "190454.900000", "190455.900000", "190456.900000", "190457.900000", "190458.900000", "190459.900000", "190500.900000", "190501.900000", "190502.900000", "190503.900000", "190504.900000", "190505.900000", "190506.900000", "190507.900000", "190508.900000", "190509.900000", "190510.900000", "190511.900000", "190512.900000", "190513.900000", "190514.900000", "190515.900000", "190516.900000", "190517.900000", "190518.900000", "190519.900000", "190520.900000", "190521.900000", "190522.900000", "190523.900000", "190524.900000", "190525.900000", "190526.900000", "190527.900000", "190528.900000", "190529.900000", "190530.900000", "190531.900000", "190532.900000", "190533.900000", "190534.900000", "190535.900000", "190536.900000", "190537.900000", "190538.900000", "190539.900000", "190540.900000", "190541.900000", "190542.900000", "190543.900000", "190544.900000", "190545.900000", "190546.900000", "190547.900000", "190548.900000", "190549.900000", "190550.900000", "190551.900000", "190552.900000", "190553.900000", "190554.900000", "190555.900000", "190556.900000", "190557.900000", "190558.900000", "190559.900000", "190600.900000", "190601.900000", "190602.900000", "190603.900000", "190604.900000", "190605.900000", "190606.900000", "190607.900000", "190608.900000", "190609.900000", "190610.900000", "190611.900000", "190612.900000", "190613.900000", "190614.900000", "190615.900000", "190616.900000", "190617.900000", "190618.900000", "190619.900000", "190620.900000", "190621.900000", "190622.900000", "190623.900000", "190624.900000", "190625.900000", "190626.900000", "190627.900000", "190628.900000", "190629.900000", "190630.900000", "190631.900000", "190632.900000", "190633.900000", "190634.900000", "190635.900000", "190636.900000", "190637.900000", "190638.900000", "190639.900000", "190640.900000", "190641.900000", "190642.900000", "190643.900000", "190644.900000", "190645.900000", "190646.900000", "190647.900000", "190648.900000", "190649.900000", "190650.900000", "190651.900000", "190652.900000", "190653.900000", "190654.900000", "190655.900000", "190656.900000", "190657.900000", "190658.900000", "190659.900000", "190700.900000", "190701.900000", "190702.900000", "190703.900000", "190704.900000", "190705.900000", "190706.900000", "190707.900000", "190708.900000", "190709.900000", "190710.900000", "190711.900000", "190712.900000", "190713.900000", "190714.900000", "190715.900000", "190716.900000", "190717.900000", "190718.900000", "190719.900000", "190720.900000", "190721.900000", "190722.900000", "190723.900000", "190724.900000", "190725.900000", "190726.900000", "190727.900000", "190728.900000", "190729.900000", "190730.900000", "190731.900000", "190732.900000", "190733.900000", "190734.900000", "190735.900000", "190736.900000", "190737.900000", "190738.900000", "190739.900000", "190740.900000", "190741.900000", "190742.900000", "190743.900000", "190744.900000", "190745.900000", "190746.900000", "190747.900000", "190748.900000", "190749.900000", "190750.900000", "190751.900000", "190752.900000", "190753.900000", "190754.900000", "190755.900000", "190756.900000", "190757.900000", "190758.900000", "190759.900000", "190800.900000", "190801.900000", "190802.900000", "190803.900000", "190804.900000", "190805.900000", "190806.900000", "190807.900000", "190808.900000", "190809.900000", "190810.900000", "190811.900000", "190812.900000", "190813.900000", "190814.900000", "190815.900000", "190816.900000", "190817.900000", "190818.900000", "190819.900000", "190820.900000", "190821.900000", "190822.900000", "190823.900000", "190824.900000", "190825.900000", "190826.900000", "190827.900000", "190828.900000", "190829.900000", "190830.900000", "190831.900000", "190832.900000", "190833.900000", "190834.900000", "190835.900000", "190836.900000", "190837.900000", "190838.900000", "190839.900000", "190840.900000", "190841.900000", "190842.900000", "190843.900000", "190844.900000", "190845.900000", "190846.900000", "190847.900000", "190848.900000", "190849.900000", "190850.900000", "190851.900000", "190852.900000", "190853.900000", "190854.900000", "190855.900000", "190856.900000", "190857.900000", "190858.900000", "190859.900000", "190900.900000", "190901.900000", "190902.900000", "190903.900000", "190904.900000", "190905.900000", "190906.900000", "190907.900000", "190908.900000", "190909.900000", "190910.900000", "190911.900000", "190912.900000", "190913.900000", "190914.900000", "190915.900000", "190916.900000", "190917.900000", "190918.900000", "190919.900000", "190920.900000", "190921.900000", "190922.900000", "190923.900000", "190924.900000", "190925.900000", "190926.900000", "190927.900000", "190928.900000", "190929.900000", "190930.900000", "190931.900000", "190932.900000", "190933.900000", "190934.900000", "190935.900000", "190936.900000", "190937.900000", "190938.900000", "190939.900000", "190940.900000", "190941.900000", "190942.900000", "190943.900000", "190944.900000", "190945.900000", "190946.900000", "190947.900000", "190948.900000", "190949.900000", "190950.900000", "190951.900000", "190952.900000", "190953.900000", "190954.900000", "190955.900000", "190956.900000", "190957.900000", "190958.900000", "190959.900000", "191000.900000", "191001.900000", "191002.900000", "191003.900000", "191004.900000", "191005.900000", "191006.900000", "191007.900000", "191008.900000", "191009.900000", "191010.900000", "191011.900000", "191012.900000", "191013.900000", "191014.900000", "191015.900000", "191016.900000", "191017.900000", "191018.900000", "191019.900000", "191020.900000", "191021.900000", "191022.900000", "191023.900000", "191024.900000", "191025.900000", "191026.900000", "191027.900000", "191028.900000", "191029.900000", "191030.900000", "191031.900000", "191032.900000", "191033.900000", "191034.900000", "191035.900000", "191036.900000", "191037.900000", "191038.900000", "191039.900000", "191040.900000", "191041.900000", "191042.900000", "191043.900000", "191044.900000", "191045.900000", "191046.900000", "191047.900000", "191048.900000", "191049.900000", "191050.900000", "191051.900000", "191052.900000", "191053.900000", "191054.900000", "191055.900000", "191056.900000", "191057.900000", "191058.900000", "191059.900000", "191100.900000", "191101.900000", "191102.900000", "191103.900000", "191104.900000", "191105.900000", "191106.900000", "191107.900000", "191108.900000", "191109.900000", "191110.900000", "191111.900000", "191112.900000", "191113.900000", "191114.900000", "191115.900000", "191116.900000", "191117.900000", "191118.900000", "191119.900000", "191120.900000", "191121.900000", "191122.900000", "191123.900000", "191124.900000", "191125.900000", "191126.900000", "191127.900000", "191128.900000", "191129.900000", "191130.900000", "191131.900000", "191132.900000", "191133.900000", "191134.900000", "191135.900000", "191136.900000", "191137.900000", "191138.900000", "191139.900000", "191140.900000", "191141.900000", "191142.900000", "191143.900000", "191144.900000", "191145.900000", "191146.900000", "191147.900000", "191148.900000", "191149.900000", "191150.900000", "191151.900000", "191152.900000", "191153.900000", "191154.900000", "191155.900000", "191156.900000", "191157.900000", "191158.900000", "191159.900000", "191200.900000", "191201.900000", "191202.900000", "191203.900000", "191204.900000", "191205.900000", "191206.900000", "191207.900000", "191208.900000", "191209.900000", "191210.900000", "191211.900000", "191212.900000", "191213.900000", "191214.900000", "191215.900000", "191216.900000", "191217.900000", "191218.900000", "191219.900000", "191220.900000", "191221.900000", "191222.900000", "191223.900000", "191224.900000", "191225.900000", "191226.900000", "191227.900000", "191228.900000", "191229.900000", "191230.900000", "191231.900000", "191232.900000", "191233.900000", "191234.900000", "191235.900000", "191236.900000", "191237.900000", "191238.900000", "191239.900000", "191240.900000", "191241.900000", "191242.900000", "191243.900000", "191244.900000", "191245.900000", "191246.900000", "191247.900000", "191248.900000", "191249.900000", "191250.900000", "191251.900000", "191252.900000", "191253.900000", "191254.900000", "191255.900000", "191256.900000", "191257.900000", "191258.900000", "191259.900000", "191300.900000", "191301.900000", "191302.900000", "191303.900000", "191304.900000", "191305.900000", "191306.900000", "191307.900000", "191308.900000", "191309.900000", "191310.900000", "191311.900000", "191312.900000", "191313.900000", "191314.900000", "191315.900000", "191316.900000", "191317.900000", "191318.900000", "191319.900000", "191320.900000", "191321.900000", "191322.900000", "191323.900000", "191324.900000", "191325.900000", "191326.900000", "191327.900000", "191328.900000", "191329.900000", "191330.900000", "191331.900000", "191332.900000", "191333.900000", "191334.900000", "191335.900000", "191336.900000", "191337.900000", "191338.900000", "191339.900000", "191340.900000", "191341.900000", "191342.900000", "191343.900000", "191344.900000", "191345.900000", "191346.900000", "191347.900000", "191348.900000", "191349.900000", "191350.900000", "191351.900000", "191352.900000", "191353.900000", "191354.900000", "191355.900000", "191356.900000", "191357.900000", "191358.900000", "191359.900000", "191400.900000", "191401.900000", "191402.900000", "191403.900000", "191404.900000", "191405.900000", "191406.900000", "191407.900000", "191408.900000", "191409.900000", "191410.900000", "191411.900000", "191412.900000", "191413.900000", "191414.900000", "191415.900000", "191416.900000", "191417.900000", "191418.900000", "191419.900000", "191420.900000", "191421.900000", "191422.900000", "191423.900000", "191424.900000", "191425.900000", "191426.900000", "191427.900000", "191428.900000", "191429.900000", "191430.900000", "191431.900000", "191432.900000", "191433.900000", "191434.900000", "191435.900000", "191436.900000", "191437.900000", "191438.900000", "191439.900000", "191440.900000", "191441.900000", "191442.900000", "191443.900000", "191444.900000", "191445.900000", "191446.900000", "191447.900000", "191448.900000", "191449.900000", "191450.900000", "191451.900000", "191452.900000", "191453.900000", "191454.900000", "191455.900000", "191456.900000", "191457.900000", "191458.900000", "191459.900000", "191500.900000", "191501.900000", "191502.900000", "191503.900000", "191504.900000", "191505.900000", "191506.900000", "191507.900000", "191508.900000", "191509.900000", "191510.900000", "191511.900000", "191512.900000", "191513.900000", "191514.900000", "191515.900000", "191516.900000", "191517.900000", "191518.900000", "191519.900000", "191520.900000", "191521.900000", "191522.900000", "191523.900000", "191524.900000", "191525.900000", "191526.900000", "191527.900000", "191528.900000", "191529.900000", "191530.900000", "191531.900000", "191532.900000", "191533.900000", "191534.900000", "191535.900000", "191536.900000", "191537.900000", "191538.900000", "191539.900000", "191540.900000", "191541.900000", "191542.900000", "191543.900000", "191544.900000", "191545.900000", "191546.900000", "191547.900000", "191548.900000", "191549.900000", "191550.900000", "191551.900000", "191552.900000", "191553.900000", "191554.900000", "191555.900000", "191556.900000", "191557.900000", "191558.900000", "191559.900000", "191600.900000", "191601.900000", "191602.900000", "191603.900000", "191604.900000", "191605.900000", "191606.900000", "191607.900000", "191608.900000", "191609.900000", "191610.900000", "191611.900000", "191612.900000", "191613.900000", "191614.900000", "191615.900000", "191616.900000", "191617.900000", "191618.900000", "191619.900000", "191620.900000", "191621.900000", "191622.900000", "191623.900000", "191624.900000", "191625.900000", "191626.900000", "191627.900000", "191628.900000", "191629.900000", "191630.900000", "191631.900000", "191632.900000", "191633.900000", "191634.900000", "191635.900000", "191636.900000", "191637.900000", "191638.900000", "191639.900000", "191640.900000", "191641.900000", "191642.900000", "191643.900000", "191644.900000", "191645.900000", "191646.900000", "191647.900000", "191648.900000", "191649.900000", "191650.900000", "191651.900000", "191652.900000", "191653.900000", "191654.900000", "191655.900000", "191656.900000", "191657.900000", "191658.900000", "191659.900000", "191700.900000", "191701.900000", "191702.900000", "191703.900000", "191704.900000", "191705.900000", "191706.900000", "191707.900000", "191708.900000", "191709.900000", "191710.900000", "191711.900000"],
