{
  "AcquisitionMatrixPE": 96,
  "AcquisitionNumber": 1,
  "AcquisitionTime": "18:23:59.882500",
  "BandwidthPerPixelPhaseEncode": 18.939,
  "BaseResolution": 96,
  "BodyPartExamined": "BRAIN",
  "ConsistencyInfo": "N4_VE11C_LATEST_20160120",
  "ConversionSoftware": "dcm2niix",
  "ConversionSoftwareVersion": "v1.0.20190902",
  "DerivedVendorReportedEchoSpacing": 0.000550011,
  "DeviceSerialNumber": "66112",
  "DwellTime": 2.2e-06,
  "EchoTime": 0.033,
  "EchoTrainLength": 96,
  "EffectiveEchoSpacing": 0.000550011,
  "FlipAngle": 59,
  "ImageOrientationPatientDICOM": [1, 0, 2.423e-12, 0, 1, 3.144e-12],
  "ImageType": [
    "ORIGINAL",
    "PRIMARY",
    "FMRI",
    "NONE",
    "ND",
    "NORM",
    "MOSAIC"
],
  "ImagingFrequency": 123.252,
  "InPlanePhaseEncodingDirectionDICOM": "COL",
  "InstitutionAddress": "Maynard_3_Hanover_NH_US_03755",
  "InstitutionName": "Dartmouth_College_-_PBS",
  "InstitutionalDepartmentName": "Department",
  "MRAcquisitionType": "2D",
  "MagneticFieldStrength": 3,
  "Manufacturer": "Siemens",
  "ManufacturersModelName": "Prisma",
  "Modality": "MR",
  "MultibandAccelerationFactor": 4,
  "PartialFourier": 1,
  "PatientPosition": "HFS",
  "PercentPhaseFOV": 100,
  "PhaseEncodingDirection": "j-",
  "PhaseEncodingSteps": 96,
  "PhaseResolution": 1,
  "PixelBandwidth": 2365,
  "ProcedureStepDescription": "Gobbini_Matteo_1037_budapest",
  "ProtocolName": "func_run-01_task-movie",
  "PulseSequenceDetails": "%SiemensSeq%_ep2d_bold",
  "ReceiveCoilActiveElements": "HEA;HEP",
  "ReceiveCoilName": "Head_32",
  "ReconMatrixPE": 96,
  "RefLinesPE": 12,
  "RepetitionTime": 1,
  "SAR": 0.044655,
  "ScanOptions": "FS",
  "ScanningSequence": "EP",
  "SequenceName": "_epfid2d1_96",
  "SequenceVariant": "SK",
  "SeriesDescription": "func_run-01_task-movie",
  "SeriesNumber": 8,
  "ShimSetting": [4130, -7727, -7357, 892, -25, -260, -13, 183],
  "SliceThickness": 2.5,
  "SliceTiming": [0.735, 0, 0.49, 0.0825, 0.5725, 0.165, 0.655, 0.3275, 0.8175, 0.41, 0.9, 0.245, 0.735, 0, 0.49, 0.0825, 0.5725, 0.165, 0.655, 0.3275, 0.8175, 0.41, 0.9, 0.245, 0.735, 0, 0.49, 0.0825, 0.5725, 0.165, 0.655, 0.3275, 0.8175, 0.41, 0.9, 0.245, 0.735, 0, 0.49, 0.0825, 0.5725, 0.165, 0.655, 0.3275, 0.8175, 0.41, 0.9, 0.245],
  "SoftwareVersions": "syngo_MR_E11",
  "SpacingBetweenSlices": 2.5,
  "StationName": "AWP66112",
  "TaskName": "movie",
  "TotalReadoutTime": 0.0522511,
  "TxRefAmp": 234.69,
  "dcmmeta_affine": [
    [-2.5, 0.0, 6.0574999877216484e-12, 120.63999938964844],
    [0.0, 2.5, 7.859999977266607e-12, -110.45999908447266],
    [6.0574999877216484e-12, -7.859999977266607e-12, 2.5, -83.70999908447266],
    [0.0, 0.0, 0.0, 1.0]
],
  "dcmmeta_reorient_transform": [
    [0.0, -1.0, 0.0, 95.0],
    [1.0, 0.0, 0.0, 0.0],
    [0.0, 0.0, 1.0, 0.0],
    [0.0, 0.0, 0.0, 1.0]
],
  "dcmmeta_shape": [96, 96, 48, 598],
  "dcmmeta_slice_dim": 2,
  "dcmmeta_version": 0.6,
  "global": {
    "const": {
      "AccessionNumber": "A001467",
      "AcquisitionMatrix": [96, 0, 0, 96],
      "AngioFlag": "N",
      "BitsAllocated": 16,
      "BitsStored": 12,
      "BodyPartExamined": "BRAIN",
      "Columns": 672,
      "EchoNumbers": 1,
      "EchoTime": 33.0,
      "EchoTrainLength": 96,
      "FlipAngle": 59.0,
      "HighBit": 11,
      "ImageOrientationPatient": [1.0, 0.0, 2.423e-12, 0.0, 1.0, 3.144e-12],
      "ImagePositionPatient": [-840.63999998569, -847.03999996185, -83.709999089149],
      "ImageType": [
        "ORIGINAL",
        "PRIMARY",
        "FMRI",
        "NONE",
        "ND",
        "NORM",
        "MOSAIC"
],
      "ImagedNucleus": "1H",
      "ImagingFrequency": 123.252316,
      "InPlanePhaseEncodingDirection": "COL",
      "MRAcquisitionType": "2D",
      "MagneticFieldStrength": 3.0,
      "Manufacturer": "SIEMENS",
      "ManufacturerModelName": "Prisma",
      "Modality": "MR",
      "NumberOfAverages": 1.0,
      "NumberOfPhaseEncodingSteps": 96,
      "PercentPhaseFieldOfView": 100.0,
      "PercentSampling": 100.0,
      "PerformedProcedureStepStartTime": "180647.636000",
      "PhotometricInterpretation": "MONOCHROME2",
      "PixelBandwidth": 2365.0,
      "PixelRepresentation": 0,
      "PixelSpacing": [2.5, 2.5],
      "ProtocolName": "func_run-01_task-movie",
      "RepetitionTime": 1000.0,
      "Rows": 672,
      "SAR": 0.04465503651381,
      "SamplesPerPixel": 1,
      "ScanOptions": "FS",
      "ScanningSequence": "EP",
      "SequenceName": "*epfid2d1_96",
      "SequenceVariant": "SK",
      "SeriesDescription": "func_run-01_task-movie",
      "SeriesNumber": 8,
      "SeriesTime": "182402.974000",
      "SliceLocation": -83.709999084449,
      "SliceThickness": 2.5,
      "SmallestImagePixelValue": 0,
      "SoftwareVersions": "syngo MR E11",
      "SpacingBetweenSlices": 2.5,
      "SpecificCharacterSet": "ISO_IR 100",
      "StudyID": "1",
      "StudyTime": "180647.584000",
      "TransmitCoilName": "Body",
      "VariableFlipAngleFlag": "N",
      "WindowCenterWidthExplanation": "Algo1",
      "dBdt": 0.0},
    "slices": {}
  },
  "time": {
    "samples": {
      "AcquisitionNumber": [1, 2, 3, 4, 5, 6, 7, 8, 9, 10, 11, 12, 13, 14, 15, 16, 17, 18, 19, 20, 21, 22, 23, 24, 25, 26, 27, 28, 29, 30, 31, 32, 33, 34, 35, 36, 37, 38, 39, 40, 41, 42, 43, 44, 45, 46, 47, 48, 49, 50, 51, 52, 53, 54, 55, 56, 57, 58, 59, 60, 61, 62, 63, 64, 65, 66, 67, 68, 69, 70, 71, 72, 73, 74, 75, 76, 77, 78, 79, 80, 81, 82, 83, 84, 85, 86, 87, 88, 89, 90, 91, 92, 93, 94, 95, 96, 97, 98, 99, 100, 101, 102, 103, 104, 105, 106, 107, 108, 109, 110, 111, 112, 113, 114, 115, 116, 117, 118, 119, 120, 121, 122, 123, 124, 125, 126, 127, 128, 129, 130, 131, 132, 133, 134, 135, 136, 137, 138, 139, 140, 141, 142, 143, 144, 145, 146, 147, 148, 149, 150, 151, 152, 153, 154, 155, 156, 157, 158, 159, 160, 161, 162, 163, 164, 165, 166, 167, 168, 169, 170, 171, 172, 173, 174, 175, 176, 177, 178, 179, 180, 181, 182, 183, 184, 185, 186, 187, 188, 189, 190, 191, 192, 193, 194, 195, 196, 197, 198, 199, 200, 201, 202, 203, 204, 205, 206, 207, 208, 209, 210, 211, 212, 213, 214, 215, 216, 217, 218, 219, 220, 221, 222, 223, 224, 225, 226, 227, 228, 229, 230, 231, 232, 233, 234, 235, 236, 237, 238, 239, 240, 241, 242, 243, 244, 245, 246, 247, 248, 249, 250, 251, 252, 253, 254, 255, 256, 257, 258, 259, 260, 261, 262, 263, 264, 265, 266, 267, 268, 269, 270, 271, 272, 273, 274, 275, 276, 277, 278, 279, 280, 281, 282, 283, 284, 285, 286, 287, 288, 289, 290, 291, 292, 293, 294, 295, 296, 297, 298, 299, 300, 301, 302, 303, 304, 305, 306, 307, 308, 309, 310, 311, 312, 313, 314, 315, 316, 317, 318, 319, 320, 321, 322, 323, 324, 325, 326, 327, 328, 329, 330, 331, 332, 333, 334, 335, 336, 337, 338, 339, 340, 341, 342, 343, 344, 345, 346, 347, 348, 349, 350, 351, 352, 353, 354, 355, 356, 357, 358, 359, 360, 361, 362, 363, 364, 365, 366, 367, 368, 369, 370, 371, 372, 373, 374, 375, 376, 377, 378, 379, 380, 381, 382, 383, 384, 385, 386, 387, 388, 389, 390, 391, 392, 393, 394, 395, 396, 397, 398, 399, 400, 401, 402, 403, 404, 405, 406, 407, 408, 409, 410, 411, 412, 413, 414, 415, 416, 417, 418, 419, 420, 421, 422, 423, 424, 425, 426, 427, 428, 429, 430, 431, 432, 433, 434, 435, 436, 437, 438, 439, 440, 441, 442, 443, 444, 445, 446, 447, 448, 449, 450, 451, 452, 453, 454, 455, 456, 457, 458, 459, 460, 461, 462, 463, 464, 465, 466, 467, 468, 469, 470, 471, 472, 473, 474, 475, 476, 477, 478, 479, 480, 481, 482, 483, 484, 485, 486, 487, 488, 489, 490, 491, 492, 493, 494, 495, 496, 497, 498, 499, 500, 501, 502, 503, 504, 505, 506, 507, 508, 509, 510, 511, 512, 513, 514, 515, 516, 517, 518, 519, 520, 521, 522, 523, 524, 525, 526, 527, 528, 529, 530, 531, 532, 533, 534, 535, 536, 537, 538, 539, 540, 541, 542, 543, 544, 545, 546, 547, 548, 549, 550, 551, 552, 553, 554, 555, 556, 557, 558, 559, 560, 561, 562, 563, 564, 565, 566, 567, 568, 569, 570, 571, 572, 573, 574, 575, 576, 577, 578, 579, 580, 581, 582, 583, 584, 585, 586, 587, 588, 589, 590, 591, 592, 593, 594, 595, 596, 597, 598],
      "AcquisitionTime": ["182359.882500", "182400.882500", "182401.882500", "182402.882500", "182403.882500", "182404.882500", "182405.882500", "182406.882500", "182407.882500", "182408.882500", "182409.882500", "182410.882500", "182411.882500", "182412.882500", "182413.882500", "182414.882500", "182415.882500", "182416.882500", "182417.882500", "182418.882500", "182419.882500", "182420.882500", "182421.882500", "182422.882500", "182423.882500", "182424.882500", "182425.882500", "182426.882500", "182427.882500", "182428.882500", "182429.882500", "182430.882500", "182431.882500", "182432.882500", "182433.882500", "182434.882500", "182435.882500", "182436.882500", "182437.882500", "182438.882500", "182439.882500", "182440.882500", "182441.882500", "182442.882500", "182443.882500", "182444.882500", "182445.882500", "182446.882500", "182447.882500", "182448.882500", "182449.882500", "182450.882500", "182451.882500", "182452.882500", "182453.882500", "182454.882500", "182455.882500", "182456.882500", "182457.882500", "182458.882500", "182459.882500", "182500.882500", "182501.882500", "182502.882500", "182503.882500", "182504.882500", "182505.882500", "182506.882500", "182507.882500", "182508.882500", "182509.882500", "182510.882500", "182511.882500", "182512.882500", "182513.882500", "182514.882500", "182515.882500", "182516.882500", "182517.882500", "182518.882500", "182519.882500", "182520.882500", "182521.882500", "182522.882500", "182523.882500", "182524.882500", "182525.882500", "182526.882500", "182527.882500", "182528.882500", "182529.882500", "182530.882500", "182531.882500", "182532.882500", "182533.882500", "182534.882500", "182535.882500", "182536.882500", "182537.882500", "182538.882500", "182539.882500", "182540.882500", "182541.882500", "182542.882500", "182543.882500", "182544.882500", "182545.882500", "182546.882500", "182547.882500", "182548.882500", "182549.882500", "182550.882500", "182551.882500", "182552.882500", "182553.882500", "182554.882500", "182555.882500", "182556.882500", "182557.882500", "182558.882500", "182559.882500", "182600.882500", "182601.882500", "182602.882500", "182603.882500", "182604.882500", "182605.882500", "182606.882500", "182607.882500", "182608.882500", "182609.882500", "182610.882500", "182611.882500", "182612.882500", "182613.882500", "182614.882500", "182615.882500", "182616.882500", "182617.882500", "182618.882500", "182619.882500", "182620.882500", "182621.882500", "182622.882500", "182623.882500", "182624.882500", "182625.882500", "182626.882500", "182627.882500", "182628.882500", "182629.882500", "182630.882500", "182631.882500", "182632.882500", "182633.882500", "182634.882500", "182635.882500", "182636.882500", "182637.882500", "182638.882500", "182639.882500", "182640.882500", "182641.882500", "182642.882500", "182643.882500", "182644.882500", "182645.882500", "182646.882500", "182647.882500", "182648.882500", "182649.882500", "182650.882500", "182651.882500", "182652.882500", "182653.882500", "182654.882500", "182655.882500", "182656.882500", "182657.882500", "182658.882500", "182659.882500", "182700.882500", "182701.882500", "182702.882500", "182703.882500", "182704.882500", "182705.882500", "182706.882500", "182707.882500", "182708.882500", "182709.882500", "182710.882500", "182711.882500", "182712.882500", "182713.882500", "182714.882500", "182715.882500", "182716.882500", "182717.882500", "182718.882500", "182719.882500", "182720.882500", "182721.882500", "182722.882500", "182723.882500", "182724.882500", "182725.882500", "182726.882500", "182727.882500", "182728.882500", "182729.882500", "182730.882500", "182731.882500", "182732.882500", "182733.882500", "182734.882500", "182735.882500", "182736.882500", "182737.882500", "182738.882500", "182739.882500", "182740.882500", "182741.882500", "182742.882500", "182743.882500", "182744.882500", "182745.882500", "182746.882500", "182747.882500", "182748.882500", "182749.882500", "182750.882500", "182751.882500", "182752.882500", "182753.882500", "182754.882500", "182755.882500", "182756.882500", "182757.882500", "182758.882500", "182759.882500", "182800.882500", "182801.882500", "182802.882500", "182803.882500", "182804.882500", "182805.882500", "182806.882500", "182807.882500", "182808.882500", "182809.882500", "182810.882500", "182811.882500", "182812.882500", "182813.882500", "182814.882500", "182815.882500", "182816.882500", "182817.882500", "182818.882500", "182819.882500", "182820.882500", "182821.882500", "182822.882500", "182823.882500", "182824.882500", "182825.882500", "182826.882500", "182827.882500", "182828.882500", "182829.882500", "182830.882500", "182831.882500", "182832.882500", "182833.882500", "182834.882500", "182835.882500", "182836.882500", "182837.882500", "182838.882500", "182839.882500", "182840.882500", "182841.882500", "182842.882500", "182843.882500", "182844.882500", "182845.882500", "182846.882500", "182847.882500", "182848.882500", "182849.882500", "182850.882500", "182851.882500", "182852.882500", "182853.882500", "182854.882500", "182855.882500", "182856.882500", "182857.882500", "182858.882500", "182859.882500", "182900.882500", "182901.882500", "182902.882500", "182903.882500", "182904.882500", "182905.882500", "182906.882500", "182907.882500", "182908.882500", "182909.882500", "182910.882500", "182911.882500", "182912.882500", "182913.882500", "182914.882500", "182915.882500", "182916.882500", "182917.882500", "182918.882500", "182919.882500", "182920.882500", "182921.882500", "182922.882500", "182923.882500", "182924.882500", "182925.882500", "182926.882500", "182927.882500", "182928.882500", "182929.882500", "182930.882500", "182931.882500", "182932.882500", "182933.882500", "182934.882500", "182935.882500", "182936.882500", "182937.882500", "182938.882500", "182939.882500", "182940.882500", "182941.882500", "182942.882500", "182943.882500", "182944.882500", "182945.882500", "182946.882500", "182947.882500", "182948.882500", "182949.882500", "182950.882500", "182951.882500", "182952.882500", "182953.882500", "182954.882500", "182955.882500", "182956.882500", "182957.882500", "182958.882500", "182959.882500", "183000.882500", "183001.882500", "183002.882500", "183003.882500", "183004.882500", "183005.882500", "183006.882500", "183007.882500", "183008.882500", "183009.882500", "183010.882500", "183011.882500", "183012.882500", "183013.882500", "183014.882500", "183015.882500", "183016.882500", "183017.882500", "183018.882500", "183019.882500", "183020.882500", "183021.882500", "183022.882500", "183023.882500", "183024.882500", "183025.882500", "183026.882500", "183027.882500", "183028.882500", "183029.882500", "183030.882500", "183031.882500", "183032.882500", "183033.882500", "183034.882500", "183035.882500", "183036.882500", "183037.882500", "183038.882500", "183039.882500", "183040.882500", "183041.882500", "183042.882500", "183043.882500", "183044.882500", "183045.882500", "183046.882500", "183047.882500", "183048.882500", "183049.882500", "183050.882500", "183051.882500", "183052.882500", "183053.882500", "183054.882500", "183055.882500", "183056.882500", "183057.882500", "183058.882500", "183059.882500", "183100.882500", "183101.882500", "183102.882500", "183103.882500", "183104.882500", "183105.882500", "183106.882500", "183107.882500", "183108.882500", "183109.882500", "183110.882500", "183111.882500", "183112.882500", "183113.882500", "183114.882500", "183115.882500", "183116.882500", "183117.882500", "183118.882500", "183119.882500", "183120.882500", "183121.882500", "183122.882500", "183123.882500", "183124.882500", "183125.882500", "183126.882500", "183127.882500", "183128.882500", "183129.882500", "183130.882500", "183131.882500", "183132.882500", "183133.882500", "183134.882500", "183135.882500", "183136.882500", "183137.882500", "183138.882500", "183139.882500", "183140.882500", "183141.882500", "183142.882500", "183143.882500", "183144.882500", "183145.882500", "183146.882500", "183147.882500", "183148.882500", "183149.882500", "183150.882500", "183151.882500", "183152.882500", "183153.882500", "183154.882500", "183155.882500", "183156.882500", "183157.882500", "183158.882500", "183159.882500", "183200.882500", "183201.882500", "183202.882500", "183203.882500", "183204.882500", "183205.882500", "183206.882500", "183207.882500", "183208.882500", "183209.882500", "183210.882500", "183211.882500", "183212.882500", "183213.882500", "183214.882500", "183215.882500", "183216.882500", "183217.882500", "183218.882500", "183219.882500", "183220.882500", "183221.882500", "183222.882500", "183223.882500", "183224.882500", "183225.882500", "183226.882500", "183227.882500", "183228.882500", "183229.882500", "183230.882500", "183231.882500", "183232.882500", "183233.882500", "183234.882500", "183235.882500", "183236.882500", "183237.882500", "183238.882500", "183239.882500", "183240.882500", "183241.882500", "183242.882500", "183243.882500", "183244.882500", "183245.882500", "183246.882500", "183247.882500", "183248.882500", "183249.882500", "183250.882500", "183251.882500", "183252.882500", "183253.882500", "183254.882500", "183255.882500", "183256.882500", "183257.882500", "183258.882500", "183259.882500", "183300.882500", "183301.882500", "183302.882500", "183303.882500", "183304.882500", "183305.882500", "183306.882500", "183307.882500", "183308.882500", "183309.882500", "183310.882500", "183311.882500", "183312.882500", "183313.882500", "183314.882500", "183315.882500", "183316.882500", "183317.882500", "183318.882500", "183319.882500", "183320.882500", "183321.882500", "183322.882500", "183323.882500", "183324.882500", "183325.882500", "183326.882500", "183327.882500", "183328.882500", "183329.882500", "183330.882500", "183331.882500", "183332.882500", "183333.882500", "183334.882500", "183335.882500", "183336.882500", "183337.882500", "183338.882500", "183339.882500", "183340.882500", "183341.882500", "183342.882500", "183343.882500", "183344.882500", "183345.882500", "183346.882500", "183347.882500", "183348.882500", "183349.882500", "183350.882500", "183351.882500", "183352.882500", "183353.882500", "183354.882500", "183355.882500", "183356.882500"],
      "ContentTime": ["182402.977000", "182403.794000", "182404.807000", "182405.806000", "182406.832000", "182407.794000", "182408.793000", "182409.826000", "182410.801000", "182411.852000", "182412.797000", "182413.818000", "182414.819000", "182415.812000", "182416.794000", "182417.832000", "182418.793000", "182419.784000", "182420.792000", "182421.852000", "182422.794000", "182423.822000", "182424.832000", "182425.798000", "182426.826000", "182427.802000", "182428.773000", "182429.798000", "182430.815000", "182431.797000", "182432.812000", "182433.794000", "182434.797000", "182435.797000", "182436.838000", "182437.790000", "182438.800000", "182439.784000", "182440.811000", "182441.802000", "182442.787000", "182443.801000", "182444.789000", "182445.800000", "182446.775000", "182447.808000", "182448.822000", "182449.815000", "182450.816000", "182451.827000", "182452.795000", "182453.814000", "182454.789000", "182455.814000", "182456.800000", "182457.794000", "182458.795000", "182459.783000", "182500.847000", "182501.800000", "182502.792000", "182503.865000", "182504.795000", "182505.815000", "182506.804000", "182507.784000", "182508.805000", "182509.816000", "182510.792000", "182511.810000", "182512.787000", "182513.805000", "182514.827000", "182515.788000", "182516.767000", "182517.805000", "182518.802000", "182519.755000", "182520.806000", "182521.796000", "182522.794000", "182523.792000", "182524.806000", "182525.783000", "182526.801000", "182527.791000", "182528.801000", "182529.792000", "182530.782000", "182531.794000", "182532.787000", "182533.797000", "182534.802000", "182535.779000", "182536.837000", "182537.800000", "182538.783000", "182539.796000", "182540.830000", "182541.807000", "182542.775000", "182543.801000", "182544.871000", "182545.833000", "182546.809000", "182547.830000", "182548.850000", "182549.823000", "182550.817000", "182551.793000", "182552.818000", "182553.809000", "182554.823000", "182555.790000", "182556.799000", "182557.844000", "182558.821000", "182559.823000", "182600.779000", "182601.834000", "182602.823000", "182603.802000", "182604.813000", "182605.814000", "182606.813000", "182607.782000", "182608.803000", "182609.833000", "182610.808000", "182611.803000", "182612.810000", "182613.869000", "182614.815000", "182615.789000", "182616.796000", "182617.832000", "182618.843000", "182619.787000", "182620.815000", "182621.807000", "182622.837000", "182623.812000", "182624.797000", "182625.802000", "182626.814000", "182627.816000", "182628.825000", "182629.816000", "182630.794000", "182631.838000", "182632.803000", "182633.829000", "182634.836000", "182635.790000", "182636.838000", "182637.789000", "182638.798000", "182639.808000", "182640.801000", "182641.841000", "182642.815000", "182643.834000", "182644.823000", "182645.799000", "182646.811000", "182647.795000", "182648.821000", "182649.794000", "182650.831000", "182651.796000", "182652.797000", "182653.824000", "182654.819000", "182655.802000", "182656.775000", "182657.837000", "182658.826000", "182659.813000", "182700.785000", "182701.821000", "182702.802000", "182703.795000", "182704.796000", "182705.820000", "182706.830000", "182707.785000", "182708.814000", "182709.806000", "182710.769000", "182711.803000", "182712.789000", "182713.828000", "182714.789000", "182715.776000", "182716.818000", "182717.791000", "182718.777000", "182719.809000", "182720.838000", "182721.789000", "182722.811000", "182723.772000", "182724.820000", "182725.802000", "182726.798000", "182727.846000", "182728.819000", "182729.819000", "182730.805000", "182731.795000", "182732.819000", "182733.818000", "182734.803000", "182735.801000", "182736.804000", "182737.800000", "182738.830000", "182739.801000", "182740.816000", "182741.802000", "182742.789000", "182743.793000", "182744.807000", "182745.868000", "182746.832000", "182747.786000", "182748.782000", "182749.802000", "182750.786000", "182751.794000", "182752.819000", "182753.789000", "182754.813000", "182755.808000", "182756.811000", "182757.790000", "182758.806000", "182759.812000", "182800.819000", "182801.819000", "182802.805000", "182803.808000", "182804.819000", "182805.810000", "182806.756000", "182807.794000", "182808.787000", "182809.789000", "182810.818000", "182811.801000", "182812.790000", "182813.788000", "182814.789000", "182815.791000", "182816.824000", "182817.795000", "182818.787000", "182819.792000", "182820.813000", "182821.824000", "182822.791000", "182823.807000", "182824.790000", "182825.848000", "182826.816000", "182827.819000", "182828.795000", "182829.824000", "182830.808000", "182831.814000", "182832.781000", "182833.825000", "182834.786000", "182835.818000", "182836.803000", "182837.805000", "182838.800000", "182839.798000", "182840.829000", "182841.789000", "182842.804000", "182843.806000", "182844.823000", "182845.841000", "182846.818000", "182847.791000", "182848.827000", "182849.800000", "182850.771000", "182851.793000", "182852.789000", "182853.806000", "182854.789000", "182855.807000", "182856.811000", "182857.799000", "182858.781000", "182859.827000", "182900.813000", "182901.806000", "182902.788000", "182903.794000", "182904.791000", "182905.788000", "182906.814000", "182907.796000", "182908.807000", "182909.791000", "182910.818000", "182911.802000", "182912.808000", "182913.822000", "182914.811000", "182915.802000", "182916.803000", "182917.871000", "182918.804000", "182919.794000", "182920.814000", "182921.839000", "182922.841000", "182923.853000", "182924.770000", "182925.873000", "182926.840000", "182927.835000", "182928.813000", "182929.782000", "182930.789000", "182931.848000", "182932.810000", "182933.851000", "182934.819000", "182935.798000", "182936.801000", "182937.784000", "182938.869000", "182939.849000", "182940.819000", "182941.793000", "182942.805000", "182943.797000", "182944.804000", "182945.819000", "182946.821000", "182947.805000", "182948.823000", "182949.798000", "182950.838000", "182951.841000", "182952.829000", "182953.799000", "182954.792000", "182955.788000", "182956.811000", "182957.817000", "182958.808000", "182959.790000", "183000.813000", "183001.786000", "183002.797000", "183003.826000", "183004.784000", "183005.835000", "183006.797000", "183007.796000", "183008.867000", "183009.850000", "183010.806000", "183011.815000", "183012.814000", "183013.798000", "183014.794000", "183015.818000", "183016.808000", "183017.779000", "183018.824000", "183019.816000", "183020.796000", "183021.805000", "183022.837000", "183023.802000", "183024.783000", "183025.817000", "183026.797000", "183027.813000", "183028.782000", "183029.830000", "183030.778000", "183031.808000", "183032.787000", "183033.824000", "183034.793000", "183035.793000", "183036.807000", "183037.855000", "183038.813000", "183039.806000", "183040.800000", "183041.835000", "183042.803000", "183043.808000", "183044.838000", "183045.838000", "183046.836000", "183047.796000", "183048.827000", "183049.826000", "183050.806000", "183051.841000", "183052.797000", "183053.802000", "183054.832000", "183055.823000", "183056.842000", "183057.819000", "183058.860000", "183059.869000", "183100.802000", "183101.811000", "183102.922000", "183103.873000", "183104.793000", "183105.802000", "183106.837000", "183107.809000", "183108.800000", "183109.795000", "183110.825000", "183111.885000", "183112.816000", "183113.815000", "183114.806000", "183115.795000", "183116.795000", "183117.784000", "183118.821000", "183119.790000", "183120.799000", "183121.807000", "183122.796000", "183123.806000", "183124.801000", "183125.785000", "183126.795000", "183127.819000", "183128.819000", "183129.814000", "183130.828000", "183131.808000", "183132.808000", "183133.792000", "183134.838000", "183135.778000", "183136.801000", "183137.835000", "183138.851000", "183139.801000", "183140.804000", "183141.810000", "183142.840000", "183143.802000", "183144.813000", "183145.805000", "183146.783000", "183147.813000", "183148.796000", "183149.786000", "183150.841000", "183151.813000", "183152.803000", "183153.785000", "183154.801000", "183155.828000", "183156.809000", "183157.814000", "183158.818000", "183159.785000", "183200.794000", "183201.807000", "183202.780000", "183203.812000", "183204.787000", "183205.805000", "183206.801000", "183207.788000", "183208.798000", "183209.848000", "183210.796000", "183211.796000", "183212.798000", "183213.803000", "183214.788000", "183215.811000", "183216.798000", "183217.798000", "183218.794000", "183219.798000", "183220.806000", "183221.782000", "183222.806000", "183223.817000", "183224.818000", "183225.787000", "183226.815000", "183227.796000", "183228.794000", "183229.821000", "183230.830000", "183231.828000", "183232.797000", "183233.808000", "183234.808000", "183235.765000", "183236.777000", "183237.783000", "183238.811000", "183239.757000", "183240.791000", "183241.790000", "183242.839000", "183243.810000", "183244.816000", "183245.808000", "183246.865000", "183247.827000", "183248.803000", "183249.816000", "183250.785000", "183251.778000", "183252.798000", "183253.810000", "183254.775000", "183255.751000", "183256.799000", "183257.813000", "183258.819000", "183259.781000", "183300.786000", "183301.800000", "183302.792000", "183303.802000", "183304.805000", "183305.789000", "183306.787000", "183307.793000", "183308.775000", "183309.786000", "183310.801000", "183311.786000", "183312.780000", "183313.772000", "183314.801000", "183315.801000", "183316.805000", "183317.813000", "183318.786000", "183319.820000", "183320.790000", "183321.800000", "183322.798000", "183323.779000", "183324.797000", "183325.792000", "183326.781000", "183327.806000", "183328.794000", "183329.812000", "183330.797000", "183331.793000", "183332.799000", "183333.850000", "183334.791000", "183335.785000", "183336.798000", "183337.791000", "183338.791000", "183339.801000", "183340.793000", "183341.824000", "183342.801000", "183343.796000", "183344.793000", "183345.785000", "183346.812000", "183347.781000", "183348.829000", "183349.805000", "183350.852000", "183351.792000", "183352.785000", "183353.833000", "183354.798000", "183355.773000", "183356.802000", "183357.781000", "183358.771000", "183359.828000"],
