{
  "AcquisitionMatrixPE": 96,
  "AcquisitionNumber": 1,
  "AcquisitionTime": "21:12:24.142500",
  "BandwidthPerPixelPhaseEncode": 18.939,
  "BaseResolution": 96,
  "BodyPartExamined": "BRAIN",
  "ConsistencyInfo": "N4_VE11C_LATEST_20160120",
  "ConversionSoftware": "dcm2niix",
  "ConversionSoftwareVersion": "v1.0.20190902",
  "DerivedVendorReportedEchoSpacing": 0.000550011,
  "DeviceSerialNumber": "66112",
  "DwellTime": 2.2e-06,
  "EchoTime": 0.033,
  "EchoTrainLength": 96,
  "EffectiveEchoSpacing": 0.000550011,
  "FlipAngle": 59,
  "ImageOrientationPatientDICOM": [0.999113, 0.0236072, -0.0348636, -0.0238943, 0.999684, -0.00784287],
  "ImageType": [
    "ORIGINAL",
    "PRIMARY",
    "FMRI",
    "NONE",
    "ND",
    "NORM",
    "MOSAIC"
],
  "ImagingFrequency": 123.252,
  "InPlanePhaseEncodingDirectionDICOM": "COL",
  "InstitutionAddress": "Maynard_3_Hanover_NH_US_03755",
  "InstitutionName": "Dartmouth_College_-_PBS",
  "InstitutionalDepartmentName": "Department",
  "MRAcquisitionType": "2D",
  "MagneticFieldStrength": 3,
  "Manufacturer": "Siemens",
  "ManufacturersModelName": "Prisma",
  "Modality": "MR",
  "MultibandAccelerationFactor": 4,
  "PartialFourier": 1,
  "PatientPosition": "HFS",
  "PercentPhaseFOV": 100,
  "PhaseEncodingDirection": "j-",
  "PhaseEncodingSteps": 96,
  "PhaseResolution": 1,
  "PixelBandwidth": 2365,
  "ProcedureStepDescription": "Gobbini_Matteo_1037_budapest",
  "ProtocolName": "func_run-02_task-movie",
  "PulseSequenceDetails": "%SiemensSeq%_ep2d_bold",
  "ReceiveCoilActiveElements": "HEA;HEP",
  "ReceiveCoilName": "Head_32",
  "ReconMatrixPE": 96,
  "RefLinesPE": 12,
  "RepetitionTime": 1,
  "SAR": 0.0518306,
  "ScanOptions": "FS",
  "ScanningSequence": "EP",
  "SequenceName": "_epfid2d1_96",
  "SequenceVariant": "SK",
  "SeriesDescription": "func_run-02_task-movie",
  "SeriesNumber": 15,
  "ShimSetting": [4140, -7805, -7260, 912, -69, -294, 334, 82],
  "SliceThickness": 2.5,
  "SliceTiming": [0.735, 0, 0.49, 0.0825, 0.5725, 0.1625, 0.6525, 0.3275, 0.8175, 0.4075, 0.8975, 0.245, 0.735, 0, 0.49, 0.0825, 0.5725, 0.1625, 0.6525, 0.3275, 0.8175, 0.4075, 0.8975, 0.245, 0.735, 0, 0.49, 0.0825, 0.5725, 0.1625, 0.6525, 0.3275, 0.8175, 0.4075, 0.8975, 0.245, 0.735, 0, 0.49, 0.0825, 0.5725, 0.1625, 0.6525, 0.3275, 0.8175, 0.4075, 0.8975, 0.245],
  "SoftwareVersions": "syngo_MR_E11",
  "SpacingBetweenSlices": 2.5,
  "StationName": "AWP66112",
  "TaskName": "movie",
  "TotalReadoutTime": 0.0522511,
  "TxRefAmp": 232.655,
  "dcmmeta_affine": [
    [-2.4977829456329346, -0.059735868126153946, -0.08666867762804031, 123.72791290283203],
    [-0.059017982333898544, 2.499209403991699, -0.021672401577234268, -104.42677307128906],
    [-0.08715911209583282, 0.01960717886686325, 2.498403310775757, -47.138668060302734],
    [0.0, 0.0, 0.0, 1.0]
],
  "dcmmeta_reorient_transform": [
    [0.0, -1.0, 0.0, 95.0],
    [1.0, 0.0, 0.0, 0.0],
    [0.0, 0.0, 1.0, 0.0],
    [0.0, 0.0, 0.0, 1.0]
],
  "dcmmeta_shape": [96, 96, 48, 498],
  "dcmmeta_slice_dim": 2,
  "dcmmeta_version": 0.6,
  "global": {
    "const": {
      "AccessionNumber": "A001288",
      "AcquisitionMatrix": [96, 0, 0, 96],
      "AngioFlag": "N",
      "BitsAllocated": 16,
      "BitsStored": 12,
      "BodyPartExamined": "BRAIN",
      "Columns": 672,
      "EchoNumbers": 1,
      "EchoTime": 33.0,
      "EchoTrainLength": 96,
      "FlipAngle": 59.0,
      "HighBit": 11,
      "ImageOrientationPatient": [0.99911322011594, 0.02360719357838, -0.0348636458352, -0.0238943473386, 0.99968372474858, -0.0078428717996],
      "ImagePositionPatient": [-820.21059284949, -869.76757554961, -14.527293466867],
      "ImageType": [
        "ORIGINAL",
        "PRIMARY",
        "FMRI",
        "NONE",
        "ND",
        "NORM",
        "MOSAIC"
],
      "ImagedNucleus": "1H",
      "ImagingFrequency": 123.252333,
      "InPlanePhaseEncodingDirection": "COL",
      "MRAcquisitionType": "2D",
      "MagneticFieldStrength": 3.0,
      "Manufacturer": "SIEMENS",
      "ManufacturerModelName": "Prisma",
      "Modality": "MR",
      "NumberOfAverages": 1.0,
      "NumberOfPhaseEncodingSteps": 96,
      "PercentPhaseFieldOfView": 100.0,
      "PercentSampling": 100.0,
      "PerformedProcedureStepStartTime": "204337.867000",
      "PhotometricInterpretation": "MONOCHROME2",
      "PixelBandwidth": 2365.0,
      "PixelRepresentation": 0,
      "PixelSpacing": [2.5, 2.5],
      "ProtocolName": "func_run-02_task-movie",
      "RepetitionTime": 1000.0,
      "Rows": 672,
      "SAR": 0.05183061050037,
      "SamplesPerPixel": 1,
      "ScanOptions": "FS",
      "ScanningSequence": "EP",
      "SequenceName": "*epfid2d1_96",
      "SequenceVariant": "SK",
      "SeriesDescription": "func_run-02_task-movie",
      "SeriesNumber": 15,
      "SeriesTime": "211225.962000",
      "SliceLocation": -50.492623149551,
      "SliceThickness": 2.5,
      "SmallestImagePixelValue": 0,
      "SoftwareVersions": "syngo MR E11",
      "SpacingBetweenSlices": 2.5000000054367,
      "SpecificCharacterSet": "ISO_IR 100",
      "StudyID": "2",
      "StudyTime": "204337.766000",
      "TransmitCoilName": "Body",
      "VariableFlipAngleFlag": "N",
      "WindowCenterWidthExplanation": "Algo1",
      "dBdt": 0.0},
    "slices": {}
  },
  "time": {
    "samples": {
      "AcquisitionNumber": [1, 2, 3, 4, 5, 6, 7, 8, 9, 10, 11, 12, 13, 14, 15, 16, 17, 18, 19, 20, 21, 22, 23, 24, 25, 26, 27, 28, 29, 30, 31, 32, 33, 34, 35, 36, 37, 38, 39, 40, 41, 42, 43, 44, 45, 46, 47, 48, 49, 50, 51, 52, 53, 54, 55, 56, 57, 58, 59, 60, 61, 62, 63, 64, 65, 66, 67, 68, 69, 70, 71, 72, 73, 74, 75, 76, 77, 78, 79, 80, 81, 82, 83, 84, 85, 86, 87, 88, 89, 90, 91, 92, 93, 94, 95, 96, 97, 98, 99, 100, 101, 102, 103, 104, 105, 106, 107, 108, 109, 110, 111, 112, 113, 114, 115, 116, 117, 118, 119, 120, 121, 122, 123, 124, 125, 126, 127, 128, 129, 130, 131, 132, 133, 134, 135, 136, 137, 138, 139, 140, 141, 142, 143, 144, 145, 146, 147, 148, 149, 150, 151, 152, 153, 154, 155, 156, 157, 158, 159, 160, 161, 162, 163, 164, 165, 166, 167, 168, 169, 170, 171, 172, 173, 174, 175, 176, 177, 178, 179, 180, 181, 182, 183, 184, 185, 186, 187, 188, 189, 190, 191, 192, 193, 194, 195, 196, 197, 198, 199, 200, 201, 202, 203, 204, 205, 206, 207, 208, 209, 210, 211, 212, 213, 214, 215, 216, 217, 218, 219, 220, 221, 222, 223, 224, 225, 226, 227, 228, 229, 230, 231, 232, 233, 234, 235, 236, 237, 238, 239, 240, 241, 242, 243, 244, 245, 246, 247, 248, 249, 250, 251, 252, 253, 254, 255, 256, 257, 258, 259, 260, 261, 262, 263, 264, 265, 266, 267, 268, 269, 270, 271, 272, 273, 274, 275, 276, 277, 278, 279, 280, 281, 282, 283, 284, 285, 286, 287, 288, 289, 290, 291, 292, 293, 294, 295, 296, 297, 298, 299, 300, 301, 302, 303, 304, 305, 306, 307, 308, 309, 310, 311, 312, 313, 314, 315, 316, 317, 318, 319, 320, 321, 322, 323, 324, 325, 326, 327, 328, 329, 330, 331, 332, 333, 334, 335, 336, 337, 338, 339, 340, 341, 342, 343, 344, 345, 346, 347, 348, 349, 350, 351, 352, 353, 354, 355, 356, 357, 358, 359, 360, 361, 362, 363, 364, 365, 366, 367, 368, 369, 370, 371, 372, 373, 374, 375, 376, 377, 378, 379, 380, 381, 382, 383, 384, 385, 386, 387, 388, 389, 390, 391, 392, 393, 394, 395, 396, 397, 398, 399, 400, 401, 402, 403, 404, 405, 406, 407, 408, 409, 410, 411, 412, 413, 414, 415, 416, 417, 418, 419, 420, 421, 422, 423, 424, 425, 426, 427, 428, 429, 430, 431, 432, 433, 434, 435, 436, 437, 438, 439, 440, 441, 442, 443, 444, 445, 446, 447, 448, 449, 450, 451, 452, 453, 454, 455, 456, 457, 458, 459, 460, 461, 462, 463, 464, 465, 466, 467, 468, 469, 470, 471, 472, 473, 474, 475, 476, 477, 478, 479, 480, 481, 482, 483, 484, 485, 486, 487, 488, 489, 490, 491, 492, 493, 494, 495, 496, 497, 498],
      "AcquisitionTime": ["211224.142500", "211225.142500", "211226.142500", "211227.142500", "211228.142500", "211229.142500", "211230.142500", "211231.142500", "211232.142500", "211233.142500", "211234.142500", "211235.142500", "211236.142500", "211237.142500", "211238.142500", "211239.142500", "211240.142500", "211241.142500", "211242.142500", "211243.142500", "211244.142500", "211245.142500", "211246.142500", "211247.142500", "211248.142500", "211249.142500", "211250.142500", "211251.142500", "211252.142500", "211253.142500", "211254.142500", "211255.142500", "211256.142500", "211257.142500", "211258.142500", "211259.142500", "211300.142500", "211301.142500", "211302.142500", "211303.142500", "211304.142500", "211305.142500", "211306.142500", "211307.142500", "211308.142500", "211309.142500", "211310.142500", "211311.142500", "211312.142500", "211313.142500", "211314.142500", "211315.142500", "211316.142500", "211317.142500", "211318.142500", "211319.142500", "211320.142500", "211321.142500", "211322.142500", "211323.142500", "211324.142500", "211325.142500", "211326.142500", "211327.142500", "211328.142500", "211329.142500", "211330.142500", "211331.142500", "211332.142500", "211333.142500", "211334.142500", "211335.142500", "211336.142500", "211337.142500", "211338.142500", "211339.142500", "211340.142500", "211341.142500", "211342.142500", "211343.142500", "211344.142500", "211345.142500", "211346.142500", "211347.142500", "211348.142500", "211349.142500", "211350.142500", "211351.142500", "211352.142500", "211353.142500", "211354.142500", "211355.142500", "211356.142500", "211357.142500", "211358.142500", "211359.142500", "211400.142500", "211401.142500", "211402.142500", "211403.142500", "211404.142500", "211405.142500", "211406.142500", "211407.142500", "211408.142500", "211409.142500", "211410.142500", "211411.142500", "211412.142500", "211413.142500", "211414.142500", "211415.142500", "211416.142500", "211417.142500", "211418.142500", "211419.142500", "211420.142500", "211421.142500", "211422.142500", "211423.142500", "211424.142500", "211425.142500", "211426.142500", "211427.142500", "211428.142500", "211429.142500", "211430.142500", "211431.142500", "211432.142500", "211433.142500", "211434.142500", "211435.142500", "211436.142500", "211437.142500", "211438.142500", "211439.142500", "211440.142500", "211441.142500", "211442.142500", "211443.142500", "211444.142500", "211445.142500", "211446.142500", "211447.142500", "211448.142500", "211449.142500", "211450.142500", "211451.142500", "211452.142500", "211453.142500", "211454.142500", "211455.142500", "211456.142500", "211457.142500", "211458.142500", "211459.142500", "211500.142500", "211501.142500", "211502.142500", "211503.142500", "211504.142500", "211505.142500", "211506.142500", "211507.142500", "211508.142500", "211509.142500", "211510.142500", "211511.142500", "211512.142500", "211513.142500", "211514.142500", "211515.142500", "211516.142500", "211517.142500", "211518.142500", "211519.142500", "211520.142500", "211521.142500", "211522.142500", "211523.142500", "211524.142500", "211525.142500", "211526.142500", "211527.142500", "211528.142500", "211529.142500", "211530.142500", "211531.142500", "211532.142500", "211533.142500", "211534.142500", "211535.142500", "211536.142500", "211537.142500", "211538.142500", "211539.142500", "211540.142500", "211541.142500", "211542.142500", "211543.142500", "211544.142500", "211545.142500", "211546.142500", "211547.142500", "211548.142500", "211549.142500", "211550.142500", "211551.142500", "211552.142500", "211553.142500", "211554.142500", "211555.142500", "211556.142500", "211557.142500", "211558.142500", "211559.142500", "211600.142500", "211601.142500", "211602.142500", "211603.142500", "211604.142500", "211605.142500", "211606.142500", "211607.142500", "211608.142500", "211609.142500", "211610.142500", "211611.142500", "211612.142500", "211613.142500", "211614.142500", "211615.142500", "211616.142500", "211617.142500", "211618.142500", "211619.142500", "211620.142500", "211621.142500", "211622.142500", "211623.142500", "211624.142500", "211625.142500", "211626.142500", "211627.142500", "211628.142500", "211629.142500", "211630.142500", "211631.142500", "211632.142500", "211633.142500", "211634.142500", "211635.142500", "211636.142500", "211637.142500", "211638.142500", "211639.142500", "211640.142500", "211641.142500", "211642.142500", "211643.142500", "211644.142500", "211645.142500", "211646.142500", "211647.142500", "211648.142500", "211649.142500", "211650.142500", "211651.142500", "211652.142500", "211653.142500", "211654.142500", "211655.142500", "211656.142500", "211657.142500", "211658.142500", "211659.142500", "211700.142500", "211701.142500", "211702.142500", "211703.142500", "211704.142500", "211705.142500", "211706.142500", "211707.142500", "211708.142500", "211709.142500", "211710.142500", "211711.142500", "211712.142500", "211713.142500", "211714.142500", "211715.142500", "211716.142500", "211717.142500", "211718.142500", "211719.142500", "211720.142500", "211721.142500", "211722.142500", "211723.142500", "211724.142500", "211725.142500", "211726.142500", "211727.142500", "211728.142500", "211729.142500", "211730.142500", "211731.142500", "211732.142500", "211733.142500", "211734.142500", "211735.142500", "211736.142500", "211737.142500", "211738.142500", "211739.142500", "211740.142500", "211741.142500", "211742.142500", "211743.142500", "211744.142500", "211745.142500", "211746.142500", "211747.142500", "211748.142500", "211749.142500", "211750.142500", "211751.142500", "211752.142500", "211753.142500", "211754.142500", "211755.142500", "211756.142500", "211757.142500", "211758.142500", "211759.142500", "211800.142500", "211801.142500", "211802.142500", "211803.142500", "211804.142500", "211805.142500", "211806.142500", "211807.142500", "211808.142500", "211809.142500", "211810.142500", "211811.142500", "211812.142500", "211813.142500", "211814.142500", "211815.142500", "211816.142500", "211817.142500", "211818.142500", "211819.142500", "211820.142500", "211821.142500", "211822.142500", "211823.142500", "211824.142500", "211825.142500", "211826.142500", "211827.142500", "211828.142500", "211829.142500", "211830.142500", "211831.142500", "211832.142500", "211833.142500", "211834.142500", "211835.142500", "211836.142500", "211837.142500", "211838.142500", "211839.142500", "211840.142500", "211841.142500", "211842.142500", "211843.142500", "211844.142500", "211845.142500", "211846.142500", "211847.142500", "211848.142500", "211849.142500", "211850.142500", "211851.142500", "211852.142500", "211853.142500", "211854.142500", "211855.142500", "211856.142500", "211857.142500", "211858.142500", "211859.142500", "211900.142500", "211901.142500", "211902.142500", "211903.142500", "211904.142500", "211905.142500", "211906.142500", "211907.142500", "211908.142500", "211909.142500", "211910.142500", "211911.142500", "211912.142500", "211913.142500", "211914.142500", "211915.142500", "211916.142500", "211917.142500", "211918.142500", "211919.142500", "211920.142500", "211921.142500", "211922.142500", "211923.142500", "211924.142500", "211925.142500", "211926.142500", "211927.142500", "211928.142500", "211929.142500", "211930.142500", "211931.142500", "211932.142500", "211933.142500", "211934.142500", "211935.142500", "211936.142500", "211937.142500", "211938.142500", "211939.142500", "211940.142500", "211941.142500", "211942.142500", "211943.142500", "211944.142500", "211945.142500", "211946.142500", "211947.142500", "211948.142500", "211949.142500", "211950.142500", "211951.142500", "211952.142500", "211953.142500", "211954.142500", "211955.142500", "211956.142500", "211957.142500", "211958.142500", "211959.142500", "212000.142500", "212001.142500", "212002.142500", "212003.142500", "212004.142500", "212005.142500", "212006.142500", "212007.142500", "212008.142500", "212009.142500", "212010.142500", "212011.142500", "212012.142500", "212013.142500", "212014.142500", "212015.142500", "212016.142500", "212017.142500", "212018.142500", "212019.142500", "212020.142500", "212021.142500", "212022.142500", "212023.142500", "212024.142500", "212025.142500", "212026.142500", "212027.142500", "212028.142500", "212029.142500", "212030.142500", "212031.142500", "212032.142500", "212033.142500", "212034.142500", "212035.142500", "212036.142500", "212037.142500", "212038.142500", "212039.142500", "212040.142500", "212041.142500"],
      "ContentTime": ["211225.973000", "211226.802000", "211227.795000", "211228.831000", "211229.791000", "211230.775000", "211231.764000", "211232.766000", "211233.773000", "211234.805000", "211235.783000", "211236.758000", "211237.801000", "211238.770000", "211239.802000", "211240.778000", "211241.783000", "211242.769000", "211243.799000", "211244.782000", "211245.825000", "211246.805000", "211247.773000", "211248.798000", "211249.836000", "211250.779000", "211251.762000", "211252.781000", "211253.805000", "211254.768000", "211255.822000", "211256.763000", "211257.778000", "211258.787000", "211259.780000", "211300.779000", "211301.834000", "211302.778000", "211303.790000", "211304.763000", "211305.768000", "211306.856000", "211307.796000", "211308.833000", "211309.759000", "211310.812000", "211311.761000", "211312.764000", "211313.791000", "211314.749000", "211315.771000", "211316.793000", "211317.769000", "211318.760000", "211319.800000", "211320.756000", "211321.794000", "211322.780000", "211323.766000", "211324.763000", "211325.780000", "211326.774000", "211327.764000", "211328.823000", "211329.776000", "211330.810000", "211331.789000", "211332.770000", "211333.763000", "211334.810000", "211335.775000", "211336.789000", "211337.808000", "211338.763000", "211339.770000", "211340.780000", "211341.794000", "211342.787000", "211343.780000", "211344.771000", "211345.776000", "211346.778000", "211347.748000", "211348.787000", "211349.816000", "211350.766000", "211351.780000", "211352.771000", "211353.778000", "211354.760000", "211355.775000", "211356.800000", "211357.787000", "211358.806000", "211359.741000", "211400.771000", "211401.791000", "211402.754000", "211403.769000", "211404.773000", "211405.798000", "211406.814000", "211407.792000", "211408.782000", "211409.817000", "211410.807000", "211411.773000", "211412.785000", "211413.838000", "211414.784000", "211415.782000", "211416.809000", "211417.792000", "211418.772000", "211419.781000", "211420.786000", "211421.771000", "211422.792000", "211423.812000", "211424.776000", "211425.822000", "211426.785000", "211427.797000", "211428.779000", "211429.774000", "211430.779000", "211431.772000", "211432.777000", "211433.773000", "211434.797000", "211435.770000", "211436.774000", "211437.776000", "211438.757000", "211439.799000", "211440.834000", "211441.756000", "211442.795000", "211443.794000", "211444.792000", "211445.782000", "211446.789000", "211447.807000", "211448.771000", "211449.781000", "211450.779000", "211451.771000", "211452.779000", "211453.749000", "211454.747000", "211455.776000", "211456.803000", "211457.809000", "211458.788000", "211459.774000", "211500.813000", "211501.804000", "211502.769000", "211503.779000", "211504.777000", "211505.788000", "211506.751000", "211507.787000", "211508.762000", "211509.795000", "211510.776000", "211511.789000", "211512.845000", "211513.791000", "211514.778000", "211515.760000", "211516.777000", "211517.808000", "211518.834000", "211519.781000", "211520.862000", "211521.774000", "211522.803000", "211523.790000", "211524.773000", "211525.807000", "211526.799000", "211527.756000", "211528.778000", "211529.780000", "211530.773000", "211531.762000", "211532.820000", "211533.772000", "211534.800000", "211535.783000", "211536.765000", "211537.849000", "211538.794000", "211539.783000", "211540.836000", "211541.801000", "211542.805000", "211543.834000", "211544.773000", "211545.792000", "211546.774000", "211547.810000", "211548.792000", "211549.788000", "211550.796000", "211551.774000", "211552.765000", "211553.773000", "211554.798000", "211555.799000", "211556.768000", "211557.824000", "211558.780000", "211559.766000", "211600.839000", "211601.765000", "211602.766000", "211603.782000", "211604.789000", "211605.856000", "211606.785000", "211607.800000", "211608.817000", "211609.771000", "211610.772000", "211611.785000", "211612.821000", "211613.772000", "211614.786000", "211615.829000", "211616.823000", "211617.773000", "211618.784000", "211619.821000", "211620.850000", "211621.813000", "211622.814000", "211623.754000", "211624.832000", "211625.810000", "211626.779000", "211627.825000", "211628.792000", "211629.794000", "211630.789000", "211631.798000", "211632.782000", "211633.780000", "211634.768000", "211635.788000", "211636.788000", "211637.786000", "211638.792000", "211639.798000", "211640.805000", "211641.769000", "211642.783000", "211643.815000", "211644.786000", "211645.786000", "211646.749000", "211647.775000", "211648.789000", "211649.809000", "211650.801000", "211651.790000", "211652.773000", "211653.794000", "211654.838000", "211655.797000", "211656.802000", "211657.792000", "211658.774000", "211659.776000", "211700.776000", "211701.777000", "211702.784000", "211703.790000", "211704.874000", "211705.845000", "211706.813000", "211707.772000", "211708.832000", "211709.843000", "211710.779000", "211711.736000", "211712.825000", "211713.774000", "211714.785000", "211715.771000", "211716.769000", "211717.798000", "211718.766000", "211719.785000", "211720.810000", "211721.822000", "211722.855000", "211723.774000", "211724.777000", "211725.770000", "211726.777000", "211727.780000", "211728.774000", "211729.782000", "211730.781000", "211731.779000", "211732.839000", "211733.788000", "211734.783000", "211735.790000", "211736.784000", "211737.843000", "211738.802000", "211739.770000", "211740.817000", "211741.803000", "211742.809000", "211743.776000", "211744.838000", "211745.815000", "211746.852000", "211747.803000", "211748.768000", "211749.759000", "211750.759000", "211751.785000", "211752.803000", "211753.823000", "211754.782000", "211755.787000", "211756.781000", "211757.791000", "211758.845000", "211759.801000", "211800.830000", "211801.853000", "211802.852000", "211803.800000", "211804.779000", "211805.766000", "211806.768000", "211807.785000", "211808.788000", "211809.788000", "211810.778000", "211811.794000", "211812.801000", "211813.789000", "211814.816000", "211815.772000", "211816.765000", "211817.797000", "211818.772000", "211819.800000", "211820.799000", "211821.771000", "211822.780000", "211823.768000", "211824.775000", "211825.775000", "211826.784000", "211827.783000", "211828.793000", "211829.792000", "211830.769000", "211831.777000", "211832.780000", "211833.775000", "211834.781000", "211835.810000", "211836.789000", "211837.852000", "211838.807000", "211839.806000", "211840.800000", "211841.783000", "211842.788000", "211843.760000", "211844.797000", "211845.770000", "211846.798000", "211847.785000", "211848.765000", "211849.781000", "211850.819000", "211851.781000", "211852.783000", "211853.809000", "211854.778000", "211855.812000", "211856.757000", "211857.776000", "211858.759000", "211859.775000", "211900.848000", "211901.768000", "211902.785000", "211903.795000", "211904.759000", "211905.773000", "211906.783000", "211907.803000", "211908.756000", "211909.791000", "211910.784000", "211911.791000", "211912.772000", "211913.775000", "211914.771000", "211915.838000", "211916.765000", "211917.780000", "211918.793000", "211919.791000", "211920.820000", "211921.787000", "211922.839000", "211923.817000", "211924.754000", "211925.775000", "211926.763000", "211927.771000", "211928.835000", "211929.831000", "211930.856000", "211931.801000", "211932.764000", "211933.799000", "211934.786000", "211935.810000", "211936.776000", "211937.805000", "211938.804000", "211939.784000", "211940.741000", "211941.780000", "211942.765000", "211943.771000", "211944.780000", "211945.771000", "211946.774000", "211947.798000", "211948.769000", "211949.774000", "211950.769000", "211951.781000", "211952.814000", "211953.785000", "211954.772000", "211955.832000", "211956.769000", "211957.795000", "211958.772000", "211959.763000", "212000.779000", "212001.765000", "212002.841000", "212003.771000", "212004.768000", "212005.777000", "212006.765000", "212007.791000", "212008.849000", "212009.782000", "212010.781000", "212011.783000", "212012.788000", "212013.788000", "212014.777000", "212015.777000", "212016.879000", "212017.798000", "212018.766000", "212019.774000", "212020.770000", "212021.768000", "212022.758000", "212023.785000", "212024.772000", "212025.833000", "212026.771000", "212027.779000", "212028.761000", "212029.776000", "212030.786000", "212031.790000", "212032.795000", "212033.793000", "212034.782000", "212035.760000", "212036.792000", "212037.810000", "212038.780000", "212039.793000", "212040.755000", "212041.786000", "212042.817000"],
