{
  "AcquisitionMatrixPE": 96,
  "AcquisitionNumber": 1,
  "AcquisitionTime": "21:01:48.715000",
  "BandwidthPerPixelPhaseEncode": 18.939,
  "BaseResolution": 96,
  "BodyPartExamined": "BRAIN",
  "ConsistencyInfo": "N4_VE11C_LATEST_20160120",
  "ConversionSoftware": "dcm2niix",
  "ConversionSoftwareVersion": "v1.0.20190902",
  "DerivedVendorReportedEchoSpacing": 0.000550011,
  "DeviceSerialNumber": "66112",
  "DwellTime": 2.2e-06,
  "EchoTime": 0.033,
  "EchoTrainLength": 96,
  "EffectiveEchoSpacing": 0.000550011,
  "FlipAngle": 59,
  "ImageOrientationPatientDICOM": [0.999113, 0.0236072, -0.0348636, -0.0238943, 0.999684, -0.00784287],
  "ImageType": [
    "ORIGINAL",
    "PRIMARY",
    "FMRI",
    "NONE",
    "ND",
    "NORM",
    "MOSAIC"
],
  "ImagingFrequency": 123.252,
  "InPlanePhaseEncodingDirectionDICOM": "COL",
  "InstitutionAddress": "Maynard_3_Hanover_NH_US_03755",
  "InstitutionName": "Dartmouth_College_-_PBS",
  "InstitutionalDepartmentName": "Department",
  "MRAcquisitionType": "2D",
  "MagneticFieldStrength": 3,
  "Manufacturer": "Siemens",
  "ManufacturersModelName": "Prisma",
  "Modality": "MR",
  "MultibandAccelerationFactor": 4,
  "PartialFourier": 1,
  "PatientPosition": "HFS",
  "PercentPhaseFOV": 100,
  "PhaseEncodingDirection": "j-",
  "PhaseEncodingSteps": 96,
  "PhaseResolution": 1,
  "PixelBandwidth": 2365,
  "ProcedureStepDescription": "Gobbini_Matteo_1037_budapest",
  "ProtocolName": "func_run-01_task-movie",
  "PulseSequenceDetails": "%SiemensSeq%_ep2d_bold",
  "ReceiveCoilActiveElements": "HEA;HEP",
  "ReceiveCoilName": "Head_32",
  "ReconMatrixPE": 96,
  "RefLinesPE": 12,
  "RepetitionTime": 1,
  "SAR": 0.0518867,
  "ScanOptions": "FS",
  "ScanningSequence": "EP",
  "SequenceName": "_epfid2d1_96",
  "SequenceVariant": "SK",
  "SeriesDescription": "func_run-01_task-movie",
  "SeriesNumber": 8,
  "ShimSetting": [4140, -7805, -7260, 912, -69, -294, 334, 82],
  "SliceThickness": 2.5,
  "SliceTiming": [0.735, 0, 0.49, 0.0825, 0.5725, 0.1625, 0.6525, 0.3275, 0.8175, 0.4075, 0.8975, 0.245, 0.735, 0, 0.49, 0.0825, 0.5725, 0.1625, 0.6525, 0.3275, 0.8175, 0.4075, 0.8975, 0.245, 0.735, 0, 0.49, 0.0825, 0.5725, 0.1625, 0.6525, 0.3275, 0.8175, 0.4075, 0.8975, 0.245, 0.735, 0, 0.49, 0.0825, 0.5725, 0.1625, 0.6525, 0.3275, 0.8175, 0.4075, 0.8975, 0.245],
  "SoftwareVersions": "syngo_MR_E11",
  "SpacingBetweenSlices": 2.5,
  "StationName": "AWP66112",
  "TaskName": "movie",
  "TotalReadoutTime": 0.0522511,
  "TxRefAmp": 232.655,
  "dcmmeta_affine": [
    [-2.4977829456329346, -0.059735868126153946, -0.08666867762804031, 123.72791290283203],
    [-0.059017982333898544, 2.499209403991699, -0.021672401577234268, -104.42677307128906],
    [-0.08715911209583282, 0.01960717886686325, 2.498403310775757, -47.138668060302734],
    [0.0, 0.0, 0.0, 1.0]
],
  "dcmmeta_reorient_transform": [
    [0.0, -1.0, 0.0, 95.0],
    [1.0, 0.0, 0.0, 0.0],
    [0.0, 0.0, 1.0, 0.0],
    [0.0, 0.0, 0.0, 1.0]
],
  "dcmmeta_shape": [96, 96, 48, 598],
  "dcmmeta_slice_dim": 2,
  "dcmmeta_version": 0.6,
  "global": {
    "const": {
      "AccessionNumber": "A001288",
      "AcquisitionMatrix": [96, 0, 0, 96],
      "AngioFlag": "N",
      "BitsAllocated": 16,
      "BitsStored": 12,
      "BodyPartExamined": "BRAIN",
      "Columns": 672,
      "EchoNumbers": 1,
      "EchoTime": 33.0,
      "EchoTrainLength": 96,
      "FlipAngle": 59.0,
      "HighBit": 11,
      "ImageOrientationPatient": [0.99911322011594, 0.02360719357838, -0.0348636458352, -0.0238943473386, 0.99968372474858, -0.0078428717996],
      "ImagePositionPatient": [-820.21059284949, -869.76757554961, -14.527293466867],
      "ImageType": [
        "ORIGINAL",
        "PRIMARY",
        "FMRI",
        "NONE",
        "ND",
        "NORM",
        "MOSAIC"
],
      "ImagedNucleus": "1H",
      "ImagingFrequency": 123.25233,
      "InPlanePhaseEncodingDirection": "COL",
      "MRAcquisitionType": "2D",
      "MagneticFieldStrength": 3.0,
      "Manufacturer": "SIEMENS",
      "ManufacturerModelName": "Prisma",
      "Modality": "MR",
      "NumberOfAverages": 1.0,
      "NumberOfPhaseEncodingSteps": 96,
      "PercentPhaseFieldOfView": 100.0,
      "PercentSampling": 100.0,
      "PerformedProcedureStepStartTime": "204337.867000",
      "PhotometricInterpretation": "MONOCHROME2",
      "PixelBandwidth": 2365.0,
      "PixelRepresentation": 0,
      "PixelSpacing": [2.5, 2.5],
      "ProtocolName": "func_run-01_task-movie",
      "RepetitionTime": 1000.0,
      "Rows": 672,
      "SAR": 0.05188673514309,
      "SamplesPerPixel": 1,
      "ScanOptions": "FS",
      "ScanningSequence": "EP",
      "SequenceName": "*epfid2d1_96",
      "SequenceVariant": "SK",
      "SeriesDescription": "func_run-01_task-movie",
      "SeriesNumber": 8,
      "SeriesTime": "210150.165000",
      "SliceLocation": -50.492623149551,
      "SliceThickness": 2.5,
      "SmallestImagePixelValue": 0,
      "SoftwareVersions": "syngo MR E11",
      "SpacingBetweenSlices": 2.5000000054367,
      "SpecificCharacterSet": "ISO_IR 100",
      "StudyID": "2",
      "StudyTime": "204337.766000",
      "TransmitCoilName": "Body",
      "VariableFlipAngleFlag": "N",
      "WindowCenterWidthExplanation": "Algo1",
      "dBdt": 0.0},
    "slices": {}
  },
  "time": {
    "samples": {
      "AcquisitionNumber": [1, 2, 3, 4, 5, 6, 7, 8, 9, 10, 11, 12, 13, 14, 15, 16, 17, 18, 19, 20, 21, 22, 23, 24, 25, 26, 27, 28, 29, 30, 31, 32, 33, 34, 35, 36, 37, 38, 39, 40, 41, 42, 43, 44, 45, 46, 47, 48, 49, 50, 51, 52, 53, 54, 55, 56, 57, 58, 59, 60, 61, 62, 63, 64, 65, 66, 67, 68, 69, 70, 71, 72, 73, 74, 75, 76, 77, 78, 79, 80, 81, 82, 83, 84, 85, 86, 87, 88, 89, 90, 91, 92, 93, 94, 95, 96, 97, 98, 99, 100, 101, 102, 103, 104, 105, 106, 107, 108, 109, 110, 111, 112, 113, 114, 115, 116, 117, 118, 119, 120, 121, 122, 123, 124, 125, 126, 127, 128, 129, 130, 131, 132, 133, 134, 135, 136, 137, 138, 139, 140, 141, 142, 143, 144, 145, 146, 147, 148, 149, 150, 151, 152, 153, 154, 155, 156, 157, 158, 159, 160, 161, 162, 163, 164, 165, 166, 167, 168, 169, 170, 171, 172, 173, 174, 175, 176, 177, 178, 179, 180, 181, 182, 183, 184, 185, 186, 187, 188, 189, 190, 191, 192, 193, 194, 195, 196, 197, 198, 199, 200, 201, 202, 203, 204, 205, 206, 207, 208, 209, 210, 211, 212, 213, 214, 215, 216, 217, 218, 219, 220, 221, 222, 223, 224, 225, 226, 227, 228, 229, 230, 231, 232, 233, 234, 235, 236, 237, 238, 239, 240, 241, 242, 243, 244, 245, 246, 247, 248, 249, 250, 251, 252, 253, 254, 255, 256, 257, 258, 259, 260, 261, 262, 263, 264, 265, 266, 267, 268, 269, 270, 271, 272, 273, 274, 275, 276, 277, 278, 279, 280, 281, 282, 283, 284, 285, 286, 287, 288, 289, 290, 291, 292, 293, 294, 295, 296, 297, 298, 299, 300, 301, 302, 303, 304, 305, 306, 307, 308, 309, 310, 311, 312, 313, 314, 315, 316, 317, 318, 319, 320, 321, 322, 323, 324, 325, 326, 327, 328, 329, 330, 331, 332, 333, 334, 335, 336, 337, 338, 339, 340, 341, 342, 343, 344, 345, 346, 347, 348, 349, 350, 351, 352, 353, 354, 355, 356, 357, 358, 359, 360, 361, 362, 363, 364, 365, 366, 367, 368, 369, 370, 371, 372, 373, 374, 375, 376, 377, 378, 379, 380, 381, 382, 383, 384, 385, 386, 387, 388, 389, 390, 391, 392, 393, 394, 395, 396, 397, 398, 399, 400, 401, 402, 403, 404, 405, 406, 407, 408, 409, 410, 411, 412, 413, 414, 415, 416, 417, 418, 419, 420, 421, 422, 423, 424, 425, 426, 427, 428, 429, 430, 431, 432, 433, 434, 435, 436, 437, 438, 439, 440, 441, 442, 443, 444, 445, 446, 447, 448, 449, 450, 451, 452, 453, 454, 455, 456, 457, 458, 459, 460, 461, 462, 463, 464, 465, 466, 467, 468, 469, 470, 471, 472, 473, 474, 475, 476, 477, 478, 479, 480, 481, 482, 483, 484, 485, 486, 487, 488, 489, 490, 491, 492, 493, 494, 495, 496, 497, 498, 499, 500, 501, 502, 503, 504, 505, 506, 507, 508, 509, 510, 511, 512, 513, 514, 515, 516, 517, 518, 519, 520, 521, 522, 523, 524, 525, 526, 527, 528, 529, 530, 531, 532, 533, 534, 535, 536, 537, 538, 539, 540, 541, 542, 543, 544, 545, 546, 547, 548, 549, 550, 551, 552, 553, 554, 555, 556, 557, 558, 559, 560, 561, 562, 563, 564, 565, 566, 567, 568, 569, 570, 571, 572, 573, 574, 575, 576, 577, 578, 579, 580, 581, 582, 583, 584, 585, 586, 587, 588, 589, 590, 591, 592, 593, 594, 595, 596, 597, 598],
      "AcquisitionTime": ["210148.715000", "210149.715000", "210150.715000", "210151.715000", "210152.715000", "210153.715000", "210154.715000", "210155.715000", "210156.715000", "210157.715000", "210158.715000", "210159.715000", "210200.715000", "210201.715000", "210202.715000", "210203.715000", "210204.715000", "210205.715000", "210206.715000", "210207.715000", "210208.715000", "210209.715000", "210210.715000", "210211.715000", "210212.715000", "210213.715000", "210214.715000", "210215.715000", "210216.715000", "210217.715000", "210218.715000", "210219.715000", "210220.715000", "210221.715000", "210222.715000", "210223.715000", "210224.715000", "210225.715000", "210226.715000", "210227.715000", "210228.715000", "210229.715000", "210230.715000", "210231.715000", "210232.715000", "210233.715000", "210234.715000", "210235.715000", "210236.715000", "210237.715000", "210238.715000", "210239.715000", "210240.715000", "210241.715000", "210242.715000", "210243.715000", "210244.715000", "210245.715000", "210246.715000", "210247.715000", "210248.715000", "210249.715000", "210250.715000", "210251.715000", "210252.715000", "210253.715000", "210254.715000", "210255.715000", "210256.715000", "210257.715000", "210258.715000", "210259.715000", "210300.715000", "210301.715000", "210302.715000", "210303.715000", "210304.715000", "210305.715000", "210306.715000", "210307.715000", "210308.715000", "210309.715000", "210310.715000", "210311.715000", "210312.715000", "210313.715000", "210314.715000", "210315.715000", "210316.715000", "210317.715000", "210318.715000", "210319.715000", "210320.715000", "210321.715000", "210322.715000", "210323.715000", "210324.715000", "210325.715000", "210326.715000", "210327.715000", "210328.715000", "210329.715000", "210330.715000", "210331.715000", "210332.715000", "210333.715000", "210334.715000", "210335.715000", "210336.715000", "210337.715000", "210338.715000", "210339.715000", "210340.715000", "210341.715000", "210342.715000", "210343.715000", "210344.715000", "210345.715000", "210346.715000", "210347.715000", "210348.715000", "210349.715000", "210350.715000", "210351.715000", "210352.715000", "210353.715000", "210354.715000", "210355.715000", "210356.715000", "210357.715000", "210358.715000", "210359.715000", "210400.715000", "210401.715000", "210402.715000", "210403.715000", "210404.715000", "210405.715000", "210406.715000", "210407.715000", "210408.715000", "210409.715000", "210410.715000", "210411.715000", "210412.715000", "210413.715000", "210414.715000", "210415.715000", "210416.715000", "210417.715000", "210418.715000", "210419.715000", "210420.715000", "210421.715000", "210422.715000", "210423.715000", "210424.715000", "210425.715000", "210426.715000", "210427.715000", "210428.715000", "210429.715000", "210430.715000", "210431.715000", "210432.715000", "210433.715000", "210434.715000", "210435.715000", "210436.715000", "210437.715000", "210438.715000", "210439.715000", "210440.715000", "210441.715000", "210442.715000", "210443.715000", "210444.715000", "210445.715000", "210446.715000", "210447.715000", "210448.715000", "210449.715000", "210450.715000", "210451.715000", "210452.715000", "210453.715000", "210454.715000", "210455.715000", "210456.715000", "210457.715000", "210458.715000", "210459.715000", "210500.715000", "210501.715000", "210502.715000", "210503.715000", "210504.715000", "210505.715000", "210506.715000", "210507.715000", "210508.715000", "210509.715000", "210510.715000", "210511.715000", "210512.715000", "210513.715000", "210514.715000", "210515.715000", "210516.715000", "210517.715000", "210518.715000", "210519.715000", "210520.715000", "210521.715000", "210522.715000", "210523.715000", "210524.715000", "210525.715000", "210526.715000", "210527.715000", "210528.715000", "210529.715000", "210530.715000", "210531.715000", "210532.715000", "210533.715000", "210534.715000", "210535.715000", "210536.715000", "210537.715000", "210538.715000", "210539.715000", "210540.715000", "210541.715000", "210542.715000", "210543.715000", "210544.715000", "210545.715000", "210546.715000", "210547.715000", "210548.715000", "210549.715000", "210550.715000", "210551.715000", "210552.715000", "210553.715000", "210554.715000", "210555.715000", "210556.715000", "210557.715000", "210558.715000", "210559.715000", "210600.715000", "210601.715000", "210602.715000", "210603.715000", "210604.715000", "210605.715000", "210606.715000", "210607.715000", "210608.715000", "210609.715000", "210610.715000", "210611.715000", "210612.715000", "210613.715000", "210614.715000", "210615.715000", "210616.715000", "210617.715000", "210618.715000", "210619.715000", "210620.715000", "210621.715000", "210622.715000", "210623.715000", "210624.715000", "210625.715000", "210626.715000", "210627.715000", "210628.715000", "210629.715000", "210630.715000", "210631.715000", "210632.715000", "210633.715000", "210634.715000", "210635.715000", "210636.715000", "210637.715000", "210638.715000", "210639.715000", "210640.715000", "210641.715000", "210642.715000", "210643.715000", "210644.715000", "210645.715000", "210646.715000", "210647.715000", "210648.715000", "210649.715000", "210650.715000", "210651.715000", "210652.715000", "210653.715000", "210654.715000", "210655.715000", "210656.715000", "210657.715000", "210658.715000", "210659.715000", "210700.715000", "210701.715000", "210702.715000", "210703.715000", "210704.715000", "210705.715000", "210706.715000", "210707.715000", "210708.715000", "210709.715000", "210710.715000", "210711.715000", "210712.715000", "210713.715000", "210714.715000", "210715.715000", "210716.715000", "210717.715000", "210718.715000", "210719.715000", "210720.715000", "210721.715000", "210722.715000", "210723.715000", "210724.715000", "210725.715000", "210726.715000", "210727.715000", "210728.715000", "210729.715000", "210730.715000", "210731.715000", "210732.715000", "210733.715000", "210734.715000", "210735.715000", "210736.715000", "210737.715000", "210738.715000", "210739.715000", "210740.715000", "210741.715000", "210742.715000", "210743.715000", "210744.715000", "210745.715000", "210746.715000", "210747.715000", "210748.715000", "210749.715000", "210750.715000", "210751.715000", "210752.715000", "210753.715000", "210754.715000", "210755.715000", "210756.715000", "210757.715000", "210758.715000", "210759.715000", "210800.715000", "210801.715000", "210802.715000", "210803.715000", "210804.715000", "210805.715000", "210806.715000", "210807.715000", "210808.715000", "210809.715000", "210810.715000", "210811.715000", "210812.715000", "210813.715000", "210814.715000", "210815.715000", "210816.715000", "210817.715000", "210818.715000", "210819.715000", "210820.715000", "210821.715000", "210822.715000", "210823.715000", "210824.715000", "210825.715000", "210826.715000", "210827.715000", "210828.715000", "210829.715000", "210830.715000", "210831.715000", "210832.715000", "210833.715000", "210834.715000", "210835.715000", "210836.715000", "210837.715000", "210838.715000", "210839.715000", "210840.715000", "210841.715000", "210842.715000", "210843.715000", "210844.715000", "210845.715000", "210846.715000", "210847.715000", "210848.715000", "210849.715000", "210850.715000", "210851.715000", "210852.715000", "210853.715000", "210854.715000", "210855.715000", "210856.715000", "210857.715000", "210858.715000", "210859.715000", "210900.715000", "210901.715000", "210902.715000", "210903.715000", "210904.715000", "210905.715000", "210906.715000", "210907.715000", "210908.715000", "210909.715000", "210910.715000", "210911.715000", "210912.715000", "210913.715000", "210914.715000", "210915.715000", "210916.715000", "210917.715000", "210918.715000", "210919.715000", "210920.715000", "210921.715000", "210922.715000", "210923.715000", "210924.715000", "210925.715000", "210926.715000", "210927.715000", "210928.715000", "210929.715000", "210930.715000", "210931.715000", "210932.715000", "210933.715000", "210934.715000", "210935.715000", "210936.715000", "210937.715000", "210938.715000", "210939.715000", "210940.715000", "210941.715000", "210942.715000", "210943.715000", "210944.715000", "210945.715000", "210946.715000", "210947.715000", "210948.715000", "210949.715000", "210950.715000", "210951.715000", "210952.715000", "210953.715000", "210954.715000", "210955.715000", "210956.715000", "210957.715000", "210958.715000", "210959.715000", "211000.715000", "211001.715000", "211002.715000", "211003.715000", "211004.715000", "211005.715000", "211006.715000", "211007.715000", "211008.715000", "211009.715000", "211010.715000", "211011.715000", "211012.715000", "211013.715000", "211014.715000", "211015.715000", "211016.715000", "211017.715000", "211018.715000", "211019.715000", "211020.715000", "211021.715000", "211022.715000", "211023.715000", "211024.715000", "211025.715000", "211026.715000", "211027.715000", "211028.715000", "211029.715000", "211030.715000", "211031.715000", "211032.715000", "211033.715000", "211034.715000", "211035.715000", "211036.715000", "211037.715000", "211038.715000", "211039.715000", "211040.715000", "211041.715000", "211042.715000", "211043.715000", "211044.715000", "211045.715000", "211046.715000", "211047.715000", "211048.715000", "211049.715000", "211050.715000", "211051.715000", "211052.715000", "211053.715000", "211054.715000", "211055.715000", "211056.715000", "211057.715000", "211058.715000", "211059.715000", "211100.715000", "211101.715000", "211102.715000", "211103.715000", "211104.715000", "211105.715000", "211106.715000", "211107.715000", "211108.715000", "211109.715000", "211110.715000", "211111.715000", "211112.715000", "211113.715000", "211114.715000", "211115.715000", "211116.715000", "211117.715000", "211118.715000", "211119.715000", "211120.715000", "211121.715000", "211122.715000", "211123.715000", "211124.715000", "211125.715000", "211126.715000", "211127.715000", "211128.715000", "211129.715000", "211130.715000", "211131.715000", "211132.715000", "211133.715000", "211134.715000", "211135.715000", "211136.715000", "211137.715000", "211138.715000", "211139.715000", "211140.715000", "211141.715000", "211142.715000", "211143.715000", "211144.715000", "211145.715000"],
      "ContentTime": ["210150.169000", "210150.988000", "210151.975000", "210153.027000", "210154.020000", "210155.025000", "210155.970000", "210156.986000", "210157.959000", "210158.979000", "210159.984000", "210200.988000", "210201.981000", "210202.980000", "210203.978000", "210204.986000", "210205.987000", "210207.010000", "210207.998000", "210208.965000", "210209.993000", "210210.954000", "210211.985000", "210212.991000", "210213.979000", "210214.990000", "210215.981000", "210216.967000", "210217.978000", "210219.029000", "210219.983000", "210221.002000", "210221.996000", "210223.009000", "210224.026000", "210224.973000", "210225.986000", "210226.967000", "210227.982000", "210228.975000", "210229.989000", "210230.982000", "210231.968000", "210232.974000", "210233.976000", "210234.993000", "210236.026000", "210237.026000", "210238.019000", "210239.003000", "210240.000000", "210240.969000", "210242.007000", "210242.976000", "210243.958000", "210244.994000", "210246.020000", "210246.969000", "210247.961000", "210249.005000", "210249.983000", "210250.973000", "210251.985000", "210252.986000", "210253.974000", "210254.967000", "210256.040000", "210257.004000", "210257.977000", "210258.950000", "210259.991000", "210300.959000", "210301.953000", "210302.990000", "210303.969000", "210304.996000", "210305.973000", "210306.981000", "210307.973000", "210308.988000", "210309.983000", "210310.982000", "210311.966000", "210313.017000", "210313.974000", "210315.000000", "210315.975000", "210316.964000", "210317.987000", "210318.977000", "210319.968000", "210321.022000", "210322.003000", "210322.931000", "210323.979000", "210324.957000", "210325.997000", "210327.015000", "210327.974000", "210328.962000", "210329.993000", "210330.992000", "210331.981000", "210332.993000", "210333.982000", "210334.981000", "210335.988000", "210336.982000", "210337.973000", "210338.957000", "210340.044000", "210340.977000", "210341.981000", "210342.997000", "210344.067000", "210344.945000", "210345.992000", "210346.996000", "210347.997000", "210348.987000", "210349.963000", "210351.000000", "210351.982000", "210352.984000", "210353.994000", "210354.965000", "210355.968000", "210356.945000", "210357.969000", "210359.036000", "210359.925000", "210400.973000", "210401.964000", "210403.005000", "210403.977000", "210404.957000", "210405.957000", "210406.980000", "210407.993000", "210408.977000", "210409.969000", "210410.991000", "210411.977000", "210412.971000", "210413.950000", "210415.004000", "210416.022000", "210416.966000", "210417.988000", "210418.994000", "210419.959000", "210420.990000", "210422.008000", "210423.042000", "210423.967000", "210424.969000", "210425.958000", "210426.969000", "210427.970000", "210428.983000", "210429.986000", "210431.017000", "210431.974000", "210432.970000", "210433.971000", "210435.038000", "210436.044000", "210437.050000", "210437.991000", "210438.982000", "210439.950000", "210440.974000", "210441.964000", "210442.967000", "210443.948000", "210444.964000", "210445.954000", "210446.975000", "210447.968000", "210449.028000", "210450.016000", "210451.037000", "210452.034000", "210452.964000", "210453.976000", "210454.965000", "210455.995000", "210456.982000", "210457.971000", "210458.967000", "210459.977000", "210500.974000", "210501.971000", "210502.968000", "210503.958000", "210504.968000", "210505.960000", "210506.965000", "210508.005000", "210508.956000", "210509.955000", "210510.946000", "210511.987000", "210512.959000", "210513.984000", "210514.958000", "210515.996000", "210516.997000", "210517.948000", "210518.980000", "210519.991000", "210520.957000", "210521.994000", "210522.949000", "210523.966000", "210524.969000", "210525.973000", "210526.983000", "210527.967000", "210528.949000", "210529.987000", "210530.986000", "210532.009000", "210532.970000", "210533.991000", "210534.962000", "210535.990000", "210536.958000", "210537.942000", "210538.946000", "210539.977000", "210540.994000", "210542.007000", "210542.977000", "210544.028000", "210544.975000", "210545.964000", "210546.952000", "210547.961000", "210548.964000", "210550.028000", "210550.992000", "210552.026000", "210552.963000", "210553.981000", "210554.969000", "210555.972000", "210556.962000", "210557.974000", "210558.959000", "210559.967000", "210600.973000", "210601.983000", "210602.980000", "210604.037000", "210604.983000", "210605.980000", "210606.989000", "210607.964000", "210608.957000", "210610.021000", "210611.015000", "210611.997000", "210612.971000", "210613.970000", "210614.968000", "210615.972000", "210616.970000", "210617.968000", "210618.953000", "210619.989000", "210620.973000", "210621.990000", "210622.964000", "210623.987000", "210624.986000", "210625.934000", "210626.968000", "210627.969000", "210628.987000", "210629.963000", "210630.939000", "210632.013000", "210632.975000", "210633.976000", "210634.989000", "210636.008000", "210636.983000", "210638.008000", "210638.988000", "210639.959000", "210641.033000", "210641.967000", "210642.971000", "210643.969000", "210644.951000", "210645.967000", "210647.004000", "210647.962000", "210648.989000", "210649.978000", "210650.998000", "210651.951000", "210652.957000", "210653.993000", "210654.938000", "210655.972000", "210656.957000", "210657.954000", "210659.006000", "210659.985000", "210700.987000", "210701.968000", "210702.962000", "210703.957000", "210705.008000", "210705.970000", "210706.975000", "210707.962000", "210708.947000", "210709.992000", "210710.967000", "210712.024000", "210712.979000", "210713.974000", "210714.966000", "210715.973000", "210716.991000", "210717.969000", "210718.998000", "210719.950000", "210720.977000", "210721.962000", "210722.957000", "210723.963000", "210724.958000", "210725.981000", "210727.014000", "210727.964000", "210728.989000", "210729.969000", "210730.987000", "210732.019000", "210732.960000", "210734.016000", "210735.025000", "210735.978000", "210736.976000", "210737.959000", "210738.932000", "210739.983000", "210740.967000", "210741.981000", "210742.981000", "210743.959000", "210744.981000", "210745.986000", "210746.953000", "210747.962000", "210749.006000", "210749.998000", "210750.968000", "210751.971000", "210752.978000", "210753.980000", "210754.972000", "210755.991000", "210756.973000", "210757.969000", "210759.018000", "210759.990000", "210800.960000", "210801.992000", "210803.013000", "210803.968000", "210805.010000", "210805.971000", "210806.976000", "210807.986000", "210808.948000", "210809.984000", "210810.996000", "210811.968000", "210812.960000", "210813.984000", "210814.937000", "210815.955000", "210816.981000", "210818.020000", "210819.000000", "210819.971000", "210820.988000", "210821.983000", "210822.964000", "210823.986000", "210825.017000", "210826.001000", "210827.000000", "210827.967000", "210828.975000", "210829.951000", "210830.988000", "210831.990000", "210832.949000", "210833.977000", "210834.960000", "210835.979000", "210836.996000", "210837.944000", "210838.991000", "210839.963000", "210841.036000", "210841.976000", "210842.965000", "210843.947000", "210844.967000", "210845.950000", "210846.927000", "210847.976000", "210848.975000", "210849.962000", "210850.959000", "210851.951000", "210852.984000", "210853.975000", "210854.948000", "210855.971000", "210856.998000", "210857.978000", "210858.928000", "210859.955000", "210900.969000", "210901.943000", "210902.965000", "210903.987000", "210904.971000", "210905.993000", "210906.993000", "210907.949000", "210908.966000", "210909.944000", "210910.962000", "210911.970000", "210912.967000", "210913.979000", "210914.955000", "210915.977000", "210916.979000", "210917.968000", "210918.980000", "210919.960000", "210921.002000", "210921.958000", "210922.975000", "210923.960000", "210924.963000", "210925.965000", "210926.965000", "210927.983000", "210928.974000", "210929.984000", "210930.962000", "210931.972000", "210932.987000", "210933.956000", "210934.982000", "210936.004000", "210936.958000", "210938.008000", "210938.961000", "210939.987000", "210940.971000", "210941.965000", "210942.950000", "210943.969000", "210944.970000", "210945.956000", "210946.973000", "210947.962000", "210949.034000", "210949.969000", "210951.001000", "210951.980000", "210952.951000", "210953.978000", "210954.998000", "210955.980000", "210956.956000", "210957.958000", "210958.972000", "210959.943000", "211000.951000", "211001.981000", "211002.970000", "211003.980000", "211005.001000", "211005.970000", "211006.986000", "211007.981000", "211008.991000", "211009.962000", "211011.003000", "211012.006000", "211012.978000", "211014.017000", "211014.941000", "211015.973000", "211016.976000", "211017.954000", "211018.933000", "211019.958000", "211020.961000", "211021.964000", "211022.962000", "211023.972000", "211024.961000", "211025.963000", "211026.964000", "211027.981000", "211028.966000", "211029.983000", "211030.963000", "211031.966000", "211032.957000", "211033.974000", "211034.962000", "211036.014000", "211036.978000", "211037.960000", "211038.962000", "211039.935000", "211040.947000", "211041.946000", "211042.976000", "211043.954000", "211044.977000", "211046.026000", "211046.957000", "211047.980000", "211048.962000", "211049.960000", "211050.977000", "211051.987000", "211052.963000", "211053.939000", "211054.949000", "211055.991000", "211056.954000", "211058.008000", "211058.967000", "211059.979000", "211100.967000", "211101.965000", "211102.951000", "211103.962000", "211104.991000", "211105.955000", "211106.979000", "211107.964000", "211108.978000", "211109.960000", "211110.983000", "211111.978000", "211112.958000", "211113.974000", "211115.012000", "211115.960000", "211116.927000", "211117.958000", "211118.968000", "211119.978000", "211120.992000", "211121.954000", "211122.947000", "211123.967000", "211124.962000", "211125.957000", "211126.924000", "211127.954000", "211129.000000", "211129.963000", "211130.964000", "211131.943000", "211133.047000", "211133.966000", "211134.982000", "211135.985000", "211136.967000", "211137.970000", "211139.000000", "211140.023000", "211140.979000", "211141.986000", "211142.963000", "211143.941000", "211144.932000", "211145.983000", "211147.004000"],
