{
  "AcquisitionMatrixPE": 96,
  "AcquisitionNumber": 1,
  "AcquisitionTime": "21:21:13.910000",
  "BandwidthPerPixelPhaseEncode": 18.939,
  "BaseResolution": 96,
  "BodyPartExamined": "BRAIN",
  "ConsistencyInfo": "N4_VE11C_LATEST_20160120",
  "ConversionSoftware": "dcm2niix",
  "ConversionSoftwareVersion": "v1.0.20190902",
  "DerivedVendorReportedEchoSpacing": 0.000550011,
  "DeviceSerialNumber": "66112",
  "DwellTime": 2.2e-06,
  "EchoTime": 0.033,
  "EchoTrainLength": 96,
  "EffectiveEchoSpacing": 0.000550011,
  "FlipAngle": 59,
  "ImageOrientationPatientDICOM": [0.999113, 0.0236072, -0.0348636, -0.0238943, 0.999684, -0.00784287],
  "ImageType": [
    "ORIGINAL",
    "PRIMARY",
    "FMRI",
    "NONE",
    "ND",
    "NORM",
    "MOSAIC"
],
  "ImagingFrequency": 123.252,
  "InPlanePhaseEncodingDirectionDICOM": "COL",
  "InstitutionAddress": "Maynard_3_Hanover_NH_US_03755",
  "InstitutionName": "Dartmouth_College_-_PBS",
  "InstitutionalDepartmentName": "Department",
  "MRAcquisitionType": "2D",
  "MagneticFieldStrength": 3,
  "Manufacturer": "Siemens",
  "ManufacturersModelName": "Prisma",
  "Modality": "MR",
  "MultibandAccelerationFactor": 4,
  "PartialFourier": 1,
  "PatientPosition": "HFS",
  "PercentPhaseFOV": 100,
  "PhaseEncodingDirection": "j-",
  "PhaseEncodingSteps": 96,
  "PhaseResolution": 1,
  "PixelBandwidth": 2365,
  "ProcedureStepDescription": "Gobbini_Matteo_1037_budapest",
  "ProtocolName": "func_run-03_task-movie",
  "PulseSequenceDetails": "%SiemensSeq%_ep2d_bold",
  "ReceiveCoilActiveElements": "HEA;HEP",
  "ReceiveCoilName": "Head_32",
  "ReconMatrixPE": 96,
  "RefLinesPE": 12,
  "RepetitionTime": 1,
  "SAR": 0.0518538,
  "ScanOptions": "FS",
  "ScanningSequence": "EP",
  "SequenceName": "_epfid2d1_96",
  "SequenceVariant": "SK",
  "SeriesDescription": "func_run-03_task-movie",
  "SeriesNumber": 22,
  "ShimSetting": [4140, -7805, -7260, 912, -69, -294, 334, 82],
  "SliceThickness": 2.5,
  "SliceTiming": [0.735, 0, 0.49, 0.0825, 0.5725, 0.1625, 0.6525, 0.3275, 0.8175, 0.4075, 0.8975, 0.245, 0.735, 0, 0.49, 0.0825, 0.5725, 0.1625, 0.6525, 0.3275, 0.8175, 0.4075, 0.8975, 0.245, 0.735, 0, 0.49, 0.0825, 0.5725, 0.1625, 0.6525, 0.3275, 0.8175, 0.4075, 0.8975, 0.245, 0.735, 0, 0.49, 0.0825, 0.5725, 0.1625, 0.6525, 0.3275, 0.8175, 0.4075, 0.8975, 0.245],
  "SoftwareVersions": "syngo_MR_E11",
  "SpacingBetweenSlices": 2.5,
  "StationName": "AWP66112",
  "TaskName": "movie",
  "TotalReadoutTime": 0.0522511,
  "TxRefAmp": 232.655,
  "dcmmeta_affine": [
    [-2.4977829456329346, -0.059735868126153946, -0.08666867762804031, 123.72791290283203],
    [-0.059017982333898544, 2.499209403991699, -0.021672401577234268, -104.42677307128906],
    [-0.08715911209583282, 0.01960717886686325, 2.498403310775757, -47.138668060302734],
    [0.0, 0.0, 0.0, 1.0]
],
  "dcmmeta_reorient_transform": [
    [0.0, -1.0, 0.0, 95.0],
    [1.0, 0.0, 0.0, 0.0],
    [0.0, 0.0, 1.0, 0.0],
    [0.0, 0.0, 0.0, 1.0]
],
  "dcmmeta_shape": [96, 96, 48, 535],
  "dcmmeta_slice_dim": 2,
  "dcmmeta_version": 0.6,
  "global": {
    "const": {
      "AccessionNumber": "A001288",
      "AcquisitionMatrix": [96, 0, 0, 96],
      "AngioFlag": "N",
      "BitsAllocated": 16,
      "BitsStored": 12,
      "BodyPartExamined": "BRAIN",
      "Columns": 672,
      "EchoNumbers": 1,
      "EchoTime": 33.0,
      "EchoTrainLength": 96,
      "FlipAngle": 59.0,
      "HighBit": 11,
      "ImageOrientationPatient": [0.99911322011594, 0.02360719357838, -0.0348636458352, -0.0238943473386, 0.99968372474858, -0.0078428717996],
      "ImagePositionPatient": [-820.21059284949, -869.76757554961, -14.527293466867],
      "ImageType": [
        "ORIGINAL",
        "PRIMARY",
        "FMRI",
        "NONE",
        "ND",
        "NORM",
        "MOSAIC"
],
      "ImagedNucleus": "1H",
      "ImagingFrequency": 123.252335,
      "InPlanePhaseEncodingDirection": "COL",
      "MRAcquisitionType": "2D",
      "MagneticFieldStrength": 3.0,
      "Manufacturer": "SIEMENS",
      "ManufacturerModelName": "Prisma",
      "Modality": "MR",
      "NumberOfAverages": 1.0,
      "NumberOfPhaseEncodingSteps": 96,
      "PercentPhaseFieldOfView": 100.0,
      "PercentSampling": 100.0,
      "PerformedProcedureStepStartTime": "204337.867000",
      "PhotometricInterpretation": "MONOCHROME2",
      "PixelBandwidth": 2365.0,
      "PixelRepresentation": 0,
      "PixelSpacing": [2.5, 2.5],
      "ProtocolName": "func_run-03_task-movie",
      "RepetitionTime": 1000.0,
      "Rows": 672,
      "SAR": 0.0518537796773,
      "SamplesPerPixel": 1,
      "ScanOptions": "FS",
      "ScanningSequence": "EP",
      "SequenceName": "*epfid2d1_96",
      "SequenceVariant": "SK",
      "SeriesDescription": "func_run-03_task-movie",
      "SeriesNumber": 22,
      "SeriesTime": "212115.405000",
      "SliceLocation": -50.492623149551,
      "SliceThickness": 2.5,
      "SmallestImagePixelValue": 0,
      "SoftwareVersions": "syngo MR E11",
      "SpacingBetweenSlices": 2.5000000054367,
      "SpecificCharacterSet": "ISO_IR 100",
      "StudyID": "2",
      "StudyTime": "204337.766000",
      "TransmitCoilName": "Body",
      "VariableFlipAngleFlag": "N",
      "WindowCenterWidthExplanation": "Algo1",
      "dBdt": 0.0},
    "slices": {}
  },
  "time": {
    "samples": {
      "AcquisitionNumber": [1, 2, 3, 4, 5, 6, 7, 8, 9, 10, 11, 12, 13, 14, 15, 16, 17, 18, 19, 20, 21, 22, 23, 24, 25, 26, 27, 28, 29, 30, 31, 32, 33, 34, 35, 36, 37, 38, 39, 40, 41, 42, 43, 44, 45, 46, 47, 48, 49, 50, 51, 52, 53, 54, 55, 56, 57, 58, 59, 60, 61, 62, 63, 64, 65, 66, 67, 68, 69, 70, 71, 72, 73, 74, 75, 76, 77, 78, 79, 80, 81, 82, 83, 84, 85, 86, 87, 88, 89, 90, 91, 92, 93, 94, 95, 96, 97, 98, 99, 100, 101, 102, 103, 104, 105, 106, 107, 108, 109, 110, 111, 112, 113, 114, 115, 116, 117, 118, 119, 120, 121, 122, 123, 124, 125, 126, 127, 128, 129, 130, 131, 132, 133, 134, 135, 136, 137, 138, 139, 140, 141, 142, 143, 144, 145, 146, 147, 148, 149, 150, 151, 152, 153, 154, 155, 156, 157, 158, 159, 160, 161, 162, 163, 164, 165, 166, 167, 168, 169, 170, 171, 172, 173, 174, 175, 176, 177, 178, 179, 180, 181, 182, 183, 184, 185, 186, 187, 188, 189, 190, 191, 192, 193, 194, 195, 196, 197, 198, 199, 200, 201, 202, 203, 204, 205, 206, 207, 208, 209, 210, 211, 212, 213, 214, 215, 216, 217, 218, 219, 220, 221, 222, 223, 224, 225, 226, 227, 228, 229, 230, 231, 232, 233, 234, 235, 236, 237, 238, 239, 240, 241, 242, 243, 244, 245, 246, 247, 248, 249, 250, 251, 252, 253, 254, 255, 256, 257, 258, 259, 260, 261, 262, 263, 264, 265, 266, 267, 268, 269, 270, 271, 272, 273, 274, 275, 276, 277, 278, 279, 280, 281, 282, 283, 284, 285, 286, 287, 288, 289, 290, 291, 292, 293, 294, 295, 296, 297, 298, 299, 300, 301, 302, 303, 304, 305, 306, 307, 308, 309, 310, 311, 312, 313, 314, 315, 316, 317, 318, 319, 320, 321, 322, 323, 324, 325, 326, 327, 328, 329, 330, 331, 332, 333, 334, 335, 336, 337, 338, 339, 340, 341, 342, 343, 344, 345, 346, 347, 348, 349, 350, 351, 352, 353, 354, 355, 356, 357, 358, 359, 360, 361, 362, 363, 364, 365, 366, 367, 368, 369, 370, 371, 372, 373, 374, 375, 376, 377, 378, 379, 380, 381, 382, 383, 384, 385, 386, 387, 388, 389, 390, 391, 392, 393, 394, 395, 396, 397, 398, 399, 400, 401, 402, 403, 404, 405, 406, 407, 408, 409, 410, 411, 412, 413, 414, 415, 416, 417, 418, 419, 420, 421, 422, 423, 424, 425, 426, 427, 428, 429, 430, 431, 432, 433, 434, 435, 436, 437, 438, 439, 440, 441, 442, 443, 444, 445, 446, 447, 448, 449, 450, 451, 452, 453, 454, 455, 456, 457, 458, 459, 460, 461, 462, 463, 464, 465, 466, 467, 468, 469, 470, 471, 472, 473, 474, 475, 476, 477, 478, 479, 480, 481, 482, 483, 484, 485, 486, 487, 488, 489, 490, 491, 492, 493, 494, 495, 496, 497, 498, 499, 500, 501, 502, 503, 504, 505, 506, 507, 508, 509, 510, 511, 512, 513, 514, 515, 516, 517, 518, 519, 520, 521, 522, 523, 524, 525, 526, 527, 528, 529, 530, 531, 532, 533, 534, 535],
      "AcquisitionTime": ["212113.910000", "212114.910000", "212115.910000", "212116.910000", "212117.910000", "212118.910000", "212119.910000", "212120.910000", "212121.910000", "212122.910000", "212123.910000", "212124.910000", "212125.910000", "212126.910000", "212127.910000", "212128.910000", "212129.910000", "212130.910000", "212131.910000", "212132.910000", "212133.910000", "212134.910000", "212135.910000", "212136.910000", "212137.910000", "212138.910000", "212139.910000", "212140.910000", "212141.910000", "212142.910000", "212143.910000", "212144.910000", "212145.910000", "212146.910000", "212147.910000", "212148.910000", "212149.910000", "212150.910000", "212151.910000", "212152.910000", "212153.910000", "212154.910000", "212155.910000", "212156.910000", "212157.910000", "212158.910000", "212159.910000", "212200.910000", "212201.910000", "212202.910000", "212203.910000", "212204.910000", "212205.910000", "212206.910000", "212207.910000", "212208.910000", "212209.910000", "212210.910000", "212211.910000", "212212.910000", "212213.910000", "212214.910000", "212215.910000", "212216.910000", "212217.910000", "212218.910000", "212219.910000", "212220.910000", "212221.910000", "212222.910000", "212223.910000", "212224.910000", "212225.910000", "212226.910000", "212227.910000", "212228.910000", "212229.910000", "212230.910000", "212231.910000", "212232.910000", "212233.910000", "212234.910000", "212235.910000", "212236.910000", "212237.910000", "212238.910000", "212239.910000", "212240.910000", "212241.910000", "212242.910000", "212243.910000", "212244.910000", "212245.910000", "212246.910000", "212247.910000", "212248.910000", "212249.910000", "212250.910000", "212251.910000", "212252.910000", "212253.910000", "212254.910000", "212255.910000", "212256.910000", "212257.910000", "212258.910000", "212259.910000", "212300.910000", "212301.910000", "212302.910000", "212303.910000", "212304.910000", "212305.910000", "212306.910000", "212307.910000", "212308.910000", "212309.910000", "212310.910000", "212311.910000", "212312.910000", "212313.910000", "212314.910000", "212315.910000", "212316.910000", "212317.910000", "212318.910000", "212319.910000", "212320.910000", "212321.910000", "212322.910000", "212323.910000", "212324.910000", "212325.910000", "212326.910000", "212327.910000", "212328.910000", "212329.910000", "212330.910000", "212331.910000", "212332.910000", "212333.910000", "212334.910000", "212335.910000", "212336.910000", "212337.910000", "212338.910000", "212339.910000", "212340.910000", "212341.910000", "212342.910000", "212343.910000", "212344.910000", "212345.910000", "212346.910000", "212347.910000", "212348.910000", "212349.910000", "212350.910000", "212351.910000", "212352.910000", "212353.910000", "212354.910000", "212355.910000", "212356.910000", "212357.910000", "212358.910000", "212359.910000", "212400.910000", "212401.910000", "212402.910000", "212403.910000", "212404.910000", "212405.910000", "212406.910000", "212407.910000", "212408.910000", "212409.910000", "212410.910000", "212411.910000", "212412.910000", "212413.910000", "212414.910000", "212415.910000", "212416.910000", "212417.910000", "212418.910000", "212419.910000", "212420.910000", "212421.910000", "212422.910000", "212423.910000", "212424.910000", "212425.910000", "212426.910000", "212427.910000", "212428.910000", "212429.910000", "212430.910000", "212431.910000", "212432.910000", "212433.910000", "212434.910000", "212435.910000", "212436.910000", "212437.910000", "212438.910000", "212439.910000", "212440.910000", "212441.910000", "212442.910000", "212443.910000", "212444.910000", "212445.910000", "212446.910000", "212447.910000", "212448.910000", "212449.910000", "212450.910000", "212451.910000", "212452.910000", "212453.910000", "212454.910000", "212455.910000", "212456.910000", "212457.910000", "212458.910000", "212459.910000", "212500.910000", "212501.910000", "212502.910000", "212503.910000", "212504.910000", "212505.910000", "212506.910000", "212507.910000", "212508.910000", "212509.910000", "212510.910000", "212511.910000", "212512.910000", "212513.910000", "212514.910000", "212515.910000", "212516.910000", "212517.910000", "212518.910000", "212519.910000", "212520.910000", "212521.910000", "212522.910000", "212523.910000", "212524.910000", "212525.910000", "212526.910000", "212527.910000", "212528.910000", "212529.910000", "212530.910000", "212531.910000", "212532.910000", "212533.910000", "212534.910000", "212535.910000", "212536.910000", "212537.910000", "212538.910000", "212539.910000", "212540.910000", "212541.910000", "212542.910000", "212543.910000", "212544.910000", "212545.910000", "212546.910000", "212547.910000", "212548.910000", "212549.910000", "212550.910000", "212551.910000", "212552.910000", "212553.910000", "212554.910000", "212555.910000", "212556.910000", "212557.910000", "212558.910000", "212559.910000", "212600.910000", "212601.910000", "212602.910000", "212603.910000", "212604.910000", "212605.910000", "212606.910000", "212607.910000", "212608.910000", "212609.910000", "212610.910000", "212611.910000", "212612.910000", "212613.910000", "212614.910000", "212615.910000", "212616.910000", "212617.910000", "212618.910000", "212619.910000", "212620.910000", "212621.910000", "212622.910000", "212623.910000", "212624.910000", "212625.910000", "212626.910000", "212627.910000", "212628.910000", "212629.910000", "212630.910000", "212631.910000", "212632.910000", "212633.910000", "212634.910000", "212635.910000", "212636.910000", "212637.910000", "212638.910000", "212639.910000", "212640.910000", "212641.910000", "212642.910000", "212643.910000", "212644.910000", "212645.910000", "212646.910000", "212647.910000", "212648.910000", "212649.910000", "212650.910000", "212651.910000", "212652.910000", "212653.910000", "212654.910000", "212655.910000", "212656.910000", "212657.910000", "212658.910000", "212659.910000", "212700.910000", "212701.910000", "212702.910000", "212703.910000", "212704.910000", "212705.910000", "212706.910000", "212707.910000", "212708.910000", "212709.910000", "212710.910000", "212711.910000", "212712.910000", "212713.910000", "212714.910000", "212715.910000", "212716.910000", "212717.910000", "212718.910000", "212719.910000", "212720.910000", "212721.910000", "212722.910000", "212723.910000", "212724.910000", "212725.910000", "212726.910000", "212727.910000", "212728.910000", "212729.910000", "212730.910000", "212731.910000", "212732.910000", "212733.910000", "212734.910000", "212735.910000", "212736.910000", "212737.910000", "212738.910000", "212739.910000", "212740.910000", "212741.910000", "212742.910000", "212743.910000", "212744.910000", "212745.910000", "212746.910000", "212747.910000", "212748.910000", "212749.910000", "212750.910000", "212751.910000", "212752.910000", "212753.910000", "212754.910000", "212755.910000", "212756.910000", "212757.910000", "212758.910000", "212759.910000", "212800.910000", "212801.910000", "212802.910000", "212803.910000", "212804.910000", "212805.910000", "212806.910000", "212807.910000", "212808.910000", "212809.910000", "212810.910000", "212811.910000", "212812.910000", "212813.910000", "212814.910000", "212815.910000", "212816.910000", "212817.910000", "212818.910000", "212819.910000", "212820.910000", "212821.910000", "212822.910000", "212823.910000", "212824.910000", "212825.910000", "212826.910000", "212827.910000", "212828.910000", "212829.910000", "212830.910000", "212831.910000", "212832.910000", "212833.910000", "212834.910000", "212835.910000", "212836.910000", "212837.910000", "212838.910000", "212839.910000", "212840.910000", "212841.910000", "212842.910000", "212843.910000", "212844.910000", "212845.910000", "212846.910000", "212847.910000", "212848.910000", "212849.910000", "212850.910000", "212851.910000", "212852.910000", "212853.910000", "212854.910000", "212855.910000", "212856.910000", "212857.910000", "212858.910000", "212859.910000", "212900.910000", "212901.910000", "212902.910000", "212903.910000", "212904.910000", "212905.910000", "212906.910000", "212907.910000", "212908.910000", "212909.910000", "212910.910000", "212911.910000", "212912.910000", "212913.910000", "212914.910000", "212915.910000", "212916.910000", "212917.910000", "212918.910000", "212919.910000", "212920.910000", "212921.910000", "212922.910000", "212923.910000", "212924.910000", "212925.910000", "212926.910000", "212927.910000", "212928.910000", "212929.910000", "212930.910000", "212931.910000", "212932.910000", "212933.910000", "212934.910000", "212935.910000", "212936.910000", "212937.910000", "212938.910000", "212939.910000", "212940.910000", "212941.910000", "212942.910000", "212943.910000", "212944.910000", "212945.910000", "212946.910000", "212947.910000", "212948.910000", "212949.910000", "212950.910000", "212951.910000", "212952.910000", "212953.910000", "212954.910000", "212955.910000", "212956.910000", "212957.910000", "212958.910000", "212959.910000", "213000.910000", "213001.910000", "213002.910000", "213003.910000", "213004.910000", "213005.910000", "213006.910000", "213007.910000"],
      "ContentTime": ["212115.409000", "212116.205000", "212117.226000", "212118.272000", "212119.228000", "212120.220000", "212121.250000", "212122.225000", "212123.221000", "212124.309000", "212125.222000", "212126.187000", "212127.200000", "212128.215000", "212129.195000", "212130.194000", "212131.198000", "212132.195000", "212133.265000", "212134.234000", "212135.229000", "212136.217000", "212137.212000", "212138.240000", "212139.212000", "212140.202000", "212141.211000", "212142.212000", "212143.231000", "212144.206000", "212145.201000", "212146.233000", "212147.248000", "212148.201000", "212149.211000", "212150.209000", "212151.220000", "212152.217000", "212153.239000", "212154.221000", "212155.201000", "212156.214000", "212157.212000", "212158.199000", "212159.212000", "212200.251000", "212201.207000", "212202.226000", "212203.209000", "212204.228000", "212205.216000", "212206.220000", "212207.230000", "212208.224000", "212209.205000", "212210.197000", "212211.225000", "212212.224000", "212213.216000", "212214.218000", "212215.239000", "212216.231000", "212217.221000", "212218.221000", "212219.224000", "212220.197000", "212221.210000", "212222.220000", "212223.226000", "212224.207000", "212225.204000", "212226.202000", "212227.209000", "212228.204000", "212229.209000", "212230.225000", "212231.187000", "212232.204000", "212233.281000", "212234.206000", "212235.211000", "212236.215000", "212237.231000", "212238.203000", "212239.211000", "212240.229000", "212241.214000", "212242.189000", "212243.189000", "212244.205000", "212245.201000", "212246.221000", "212247.166000", "212248.207000", "212249.209000", "212250.203000", "212251.227000", "212252.203000", "212253.204000", "212254.178000", "212255.199000", "212256.189000", "212257.200000", "212258.219000", "212259.221000", "212300.230000", "212301.204000", "212302.241000", "212303.212000", "212304.205000", "212305.254000", "212306.213000", "212307.246000", "212308.268000", "212309.222000", "212310.234000", "212311.206000", "212312.215000", "212313.230000", "212314.223000", "212315.219000", "212316.216000", "212317.228000", "212318.218000", "212319.231000", "212320.245000", "212321.252000", "212322.225000", "212323.232000", "212324.225000", "212325.250000", "212326.249000", "212327.217000", "212328.217000", "212329.211000", "212330.226000", "212331.242000", "212332.222000", "212333.210000", "212334.233000", "212335.219000", "212336.269000", "212337.225000", "212338.208000", "212339.199000", "212340.209000", "212341.223000", "212342.232000", "212343.215000", "212344.216000", "212345.209000", "212346.227000", "212347.215000", "212348.201000", "212349.263000", "212350.211000", "212351.177000", "212352.203000", "212353.207000", "212354.206000", "212355.212000", "212356.221000", "212357.194000", "212358.201000", "212359.229000", "212400.243000", "212401.224000", "212402.214000", "212403.220000", "212404.213000", "212405.225000", "212406.281000", "212407.212000", "212408.216000", "212409.221000", "212410.219000", "212411.198000", "212412.196000", "212413.211000", "212414.208000", "212415.206000", "212416.222000", "212417.202000", "212418.222000", "212419.200000", "212420.219000", "212421.226000", "212422.223000", "212423.209000", "212424.231000", "212425.227000", "212426.213000", "212427.213000", "212428.214000", "212429.210000", "212430.219000", "212431.254000", "212432.220000", "212433.222000", "212434.222000", "212435.202000", "212436.205000", "212437.188000", "212438.207000", "212439.213000", "212440.213000", "212441.234000", "212442.230000", "212443.225000", "212444.276000", "212445.204000", "212446.196000", "212447.220000", "212448.198000", "212449.224000", "212450.220000", "212451.203000", "212452.235000", "212453.224000", "212454.219000", "212455.279000", "212456.207000", "212457.219000", "212458.231000", "212459.215000", "212500.218000", "212501.219000", "212502.228000", "212503.229000", "212504.217000", "212505.208000", "212506.230000", "212507.211000", "212508.238000", "212509.220000", "212510.250000", "212511.285000", "212512.312000", "212513.231000", "212514.207000", "212515.270000", "212516.211000", "212517.235000", "212518.212000", "212519.221000", "212520.206000", "212521.213000", "212522.214000", "212523.207000", "212524.209000", "212525.212000", "212526.207000", "212527.192000", "212528.194000", "212529.223000", "212530.212000", "212531.220000", "212532.253000", "212533.229000", "212534.213000", "212535.236000", "212536.224000", "212537.205000", "212538.205000", "212539.220000", "212540.258000", "212541.250000", "212542.199000", "212543.230000", "212544.203000", "212545.255000", "212546.204000", "212547.198000", "212548.203000", "212549.225000", "212550.202000", "212551.227000", "212552.215000", "212553.235000", "212554.212000", "212555.193000", "212556.225000", "212557.215000", "212558.203000", "212559.217000", "212600.228000", "212601.223000", "212602.240000", "212603.214000", "212604.199000", "212605.232000", "212606.225000", "212607.212000", "212608.219000", "212609.203000", "212610.264000", "212611.265000", "212612.222000", "212613.214000", "212614.220000", "212615.272000", "212616.225000", "212617.309000", "212618.208000", "212619.176000", "212620.204000", "212621.203000", "212622.233000", "212623.194000", "212624.211000", "212625.251000", "212626.217000", "212627.228000", "212628.222000", "212629.269000", "212630.223000", "212631.236000", "212632.222000", "212633.232000", "212634.219000", "212635.228000", "212636.249000", "212637.255000", "212638.215000", "212639.240000", "212640.226000", "212641.190000", "212642.275000", "212643.223000", "212644.204000", "212645.240000", "212646.200000", "212647.207000", "212648.209000", "212649.224000", "212650.220000", "212651.205000", "212652.214000", "212653.202000", "212654.226000", "212655.218000", "212656.195000", "212657.218000", "212658.223000", "212659.236000", "212700.216000", "212701.209000", "212702.275000", "212703.200000", "212704.187000", "212705.228000", "212706.182000", "212707.214000", "212708.217000", "212709.216000", "212710.252000", "212711.203000", "212712.224000", "212713.234000", "212714.197000", "212715.221000", "212716.226000", "212717.228000", "212718.247000", "212719.193000", "212720.202000", "212721.200000", "212722.216000", "212723.244000", "212724.218000", "212725.232000", "212726.217000", "212727.210000", "212728.234000", "212729.229000", "212730.243000", "212731.217000", "212732.210000", "212733.217000", "212734.270000", "212735.194000", "212736.252000", "212737.213000", "212738.186000", "212739.214000", "212740.205000", "212741.226000", "212742.219000", "212743.243000", "212744.233000", "212745.214000", "212746.212000", "212747.199000", "212748.195000", "212749.221000", "212750.219000", "212751.193000", "212752.238000", "212753.202000", "212754.202000", "212755.206000", "212756.196000", "212757.229000", "212758.233000", "212759.179000", "212800.205000", "212801.217000", "212802.208000", "212803.232000", "212804.199000", "212805.254000", "212806.235000", "212807.234000", "212808.208000", "212809.221000", "212810.204000", "212811.179000", "212812.223000", "212813.205000", "212814.220000", "212815.233000", "212816.208000", "212817.244000", "212818.212000", "212819.211000", "212820.212000", "212821.217000", "212822.230000", "212823.212000", "212824.193000", "212825.260000", "212826.247000", "212827.235000", "212828.255000", "212829.326000", "212830.220000", "212831.237000", "212832.236000", "212833.216000", "212834.228000", "212835.217000", "212836.213000", "212837.231000", "212838.219000", "212839.218000", "212840.219000", "212841.236000", "212842.259000", "212843.209000", "212844.212000", "212845.221000", "212846.230000", "212847.267000", "212848.206000", "212849.242000", "212850.220000", "212851.208000", "212852.214000", "212853.230000", "212854.190000", "212855.198000", "212856.201000", "212857.219000", "212858.220000", "212859.206000", "212900.207000", "212901.221000", "212902.246000", "212903.213000", "212904.205000", "212905.222000", "212906.217000", "212907.198000", "212908.228000", "212909.210000", "212910.231000", "212911.210000", "212912.214000", "212913.191000", "212914.242000", "212915.191000", "212916.202000", "212917.215000", "212918.213000", "212919.202000", "212920.184000", "212921.214000", "212922.215000", "212923.239000", "212924.270000", "212925.224000", "212926.216000", "212927.215000", "212928.182000", "212929.216000", "212930.235000", "212931.212000", "212932.234000", "212933.284000", "212934.268000", "212935.262000", "212936.341000", "212937.261000", "212938.265000", "212939.269000", "212940.331000", "212941.265000", "212942.255000", "212943.305000", "212944.280000", "212945.283000", "212946.238000", "212947.269000", "212948.259000", "212949.270000", "212950.300000", "212951.261000", "212952.267000", "212953.338000", "212954.263000", "212955.271000", "212956.302000", "212957.256000", "212958.249000", "212959.258000", "213000.239000", "213001.253000", "213002.271000", "213003.227000", "213004.246000", "213005.250000", "213006.253000", "213007.260000", "213008.266000", "213009.242000"],
