{
  "AcquisitionMatrixPE": 96,
  "AcquisitionNumber": 1,
  "AcquisitionTime": "21:11:38.255000",
  "BaseResolution": 96,
  "BodyPartExamined": "BRAIN",
  "ConsistencyInfo": "N4_VE11C_LATEST_20160120",
  "ConversionSoftware": "dcm2niix",
  "ConversionSoftwareVersion": "v1.0.20190902",
  "DeviceSerialNumber": "66112",
  "DwellTime": 8.8e-06,
  "EchoNumber": 2,
  "EchoTime": 0.00738,
  "EchoTime1": 0.00492,
  "EchoTime2": 0.00738,
  "FlipAngle": 60,
  "ImageOrientationPatientDICOM": [
    0.998591,
    -0.0383472,
    -0.0366847,
    0.0385365,
    0.999247,
    0.00446744
  ],
  "ImageType": [
    "ORIGINAL",
    "PRIMARY",
    "P",
    "ND"
  ],
  "ImagingFrequency": 123.252,
  "InPlanePhaseEncodingDirectionDICOM": "COL",
  "InstitutionAddress": "Maynard_3_Hanover_NH_US_03755",
  "InstitutionName": "Dartmouth_College_-_PBS",
  "InstitutionalDepartmentName": "Department",
  "IntendedFor": [
    "func/sub-sid000055_task-movie_run-01_bold.nii.gz",
    "func/sub-sid000055_task-movie_run-02_bold.nii.gz",
    "func/sub-sid000055_task-movie_run-03_bold.nii.gz",
    "func/sub-sid000055_task-movie_run-04_bold.nii.gz",
    "func/sub-sid000055_task-movie_run-05_bold.nii.gz"
  ],
  "MRAcquisitionType": "2D",
  "MagneticFieldStrength": 3,
  "Manufacturer": "Siemens",
  "ManufacturersModelName": "Prisma",
  "Modality": "MR",
  "MultibandAccelerationFactor": 2,
  "PartialFourier": 1,
  "PatientPosition": "HFS",
  "PercentPhaseFOV": 100,
  "PhaseEncodingDirection": "j-",
  "PhaseEncodingSteps": 96,
  "PhaseResolution": 1,
  "PixelBandwidth": 590,
  "ProcedureStepDescription": "Gobbini_Matteo_1037_budapest",
  "ProtocolName": "fmap_acq-2.5mm",
  "PulseSequenceDetails": "%SiemensSeq%_gre_field_mapping",
  "ReceiveCoilActiveElements": "HEA;HEP",
  "ReceiveCoilName": "Head_32",
  "ReconMatrixPE": 96,
  "RepetitionTime": 0.675,
  "SAR": 0.0955412,
  "ScanningSequence": "GR",
  "SequenceName": "_fm2d2r",
  "SequenceVariant": "SP",
  "SeriesDescription": "fmap_acq-2.5mm",
  "SeriesNumber": 7,
  "ShimSetting": [
    4147,
    -7713,
    -7305,
    504,
    -46,
    -292,
    20,
    78
  ],
  "SliceThickness": 2.5,
  "SliceTiming": [
    0.32812,
    0,
    0.34375,
    0.01562,
    0.35938,
    0.01562,
    0.375,
    0.03125,
    0.39062,
    0.04688,
    0.40625,
    0.0625,
    0.42188,
    0.07812,
    0.4375,
    0.09375,
    0.45312,
    0.10938,
    0.45312,
    0.125,
    0.46875,
    0.14062,
    0.48438,
    0.15625,
    0.5,
    0.17188,
    0.51562,
    0.17188,
    0.53125,
    0.1875,
    0.54688,
    0.20312,
    0.5625,
    0.21875,
    0.57812,
    0.23438,
    0.57812,
    0.25,
    0.59375,
    0.26562,
    0.60938,
    0.28125,
    0.625,
    0.29688,
    0.64062,
    0.3125,
    0.65625,
    0.32812
  ],
  "SoftwareVersions": "syngo_MR_E11",
  "SpacingBetweenSlices": 2.5,
  "StationName": "AWP66112",
  "TxRefAmp": 260.846,
  "dcmmeta_affine": [
    [
      -2.4964771270751953,
      0.09634131193161011,
      -0.09121417999267578,
      117.41010284423828
    ],
    [
      0.09586801379919052,
      2.4981179237365723,
      0.01468658447265625,
      -110.69593048095703
    ],
    [
      -0.09171167761087418,
      -0.01116859819740057,
      2.498291015625,
      -69.83653259277344
    ],
    [
      0.0,
      0.0,
      0.0,
      1.0
    ]
  ],
  "dcmmeta_reorient_transform": [
    [
      0.0,
      -1.0,
      0.0,
      95.0
    ],
    [
      1.0,
      0.0,
      0.0,
      0.0
    ],
    [
      0.0,
      0.0,
      -1.0,
      47.0
    ],
    [
      0.0,
      0.0,
      0.0,
      1.0
    ]
  ],
  "dcmmeta_shape": [
    96,
    96,
    48
  ],
  "dcmmeta_slice_dim": 2,
  "dcmmeta_version": 0.6,
  "global": {
    "const": {
      "AccessionNumber": "A001665",
      "AcquisitionMatrix": [
        96,
        0,
        0,
        96
      ],
      "AcquisitionNumber": 1,
      "AngioFlag": "N",
      "BitsAllocated": 16,
      "BitsStored": 12,
      "BodyPartExamined": "BRAIN",
      "Columns": 96,
      "EchoNumbers": 2,
      "EchoTime": 7.38,
      "EchoTrainLength": 0,
      "FlipAngle": 60.0,
      "HighBit": 11,
      "ImageOrientationPatient": [
        0.99859087054588,
        -0.0383472041201,
        -0.0366846725295,
        0.03853652607023,
        0.99924720572214,
        0.00446743941617
      ],
      "ImageType": [
        "ORIGINAL",
        "PRIMARY",
        "P",
        "ND"
      ],
      "ImagedNucleus": "1H",
      "ImagingFrequency": 123.252267,
      "InPlanePhaseEncodingDirection": "COL",
      "MRAcquisitionType": "2D",
      "MagneticFieldStrength": 3.0,
      "Manufacturer": "SIEMENS",
      "ManufacturerModelName": "Prisma",
      "Modality": "MR",
      "NumberOfAverages": 1.0,
      "NumberOfPhaseEncodingSteps": 96,
      "PercentPhaseFieldOfView": 100.0,
      "PercentSampling": 100.0,
      "PerformedProcedureStepStartTime": "205658.861000",
      "PhotometricInterpretation": "MONOCHROME2",
      "PixelBandwidth": 590.0,
      "PixelRepresentation": 0,
      "PixelSpacing": [
        2.5,
        2.5
      ],
      "ProtocolName": "fmap_acq-2.5mm",
      "RepetitionTime": 675.0,
      "RescaleIntercept": -4096.0,
      "RescaleSlope": 2.0,
      "RescaleType": "US",
      "Rows": 96,
      "SAR": 0.09554118311952,
      "SamplesPerPixel": 1,
      "ScanningSequence": "GR",
      "SequenceName": "*fm2d2r",
      "SequenceVariant": "SP",
      "SeriesDescription": "fmap_acq-2.5mm",
      "SeriesNumber": 7,
      "SeriesTime": "211347.494000",
      "SliceThickness": 2.5,
      "SoftwareVersions": "syngo MR E11",
      "SpacingBetweenSlices": 2.5,
      "SpecificCharacterSet": "ISO_IR 100",
      "StudyID": "1",
      "StudyTime": "205658.792000",
      "TransmitCoilName": "Body",
      "VariableFlipAngleFlag": "N",
      "WindowCenterWidthExplanation": "Algo1",
      "dBdt": 0.0
    },
    "slices": {
      "AcquisitionTime": [
        "211138.255000",
        "211137.917500",
        "211138.270000",
        "211137.932500",
        "211138.282500",
        "211137.945000",
        "211138.297500",
        "211137.960000",
        "211138.312500",
        "211137.975000",
        "211138.325000",
        "211137.987500",
        "211138.340000",
        "211138.002500",
        "211138.355000",
        "211138.017500",
        "211138.367500",
        "211138.030000",
        "211138.382500",
        "211138.045000",
        "211138.395000",
        "211138.057500",
        "211138.410000",
        "211138.072500",
        "211138.425000",
        "211138.087500",
        "211138.437500",
        "211138.100000",
        "211138.452500",
        "211138.115000",
        "211138.467500",
        "211138.130000",
        "211138.480000",
        "211138.142500",
        "211138.495000",
        "211138.157500",
        "211138.507500",
        "211138.170000",
        "211138.522500",
        "211138.185000",
        "211138.537500",
        "211138.200000",
        "211138.550000",
        "211138.212500",
        "211138.565000",
        "211138.227500",
        "211138.580000",
        "211138.242500"
      ],
      "ContentTime": [
        "211347.560000",
        "211347.496000",
        "211347.562000",
        "211347.498000",
        "211347.564000",
        "211347.500000",
        "211347.566000",
        "211347.502000",
        "211347.568000",
        "211347.504000",
        "211347.570000",
        "211347.506000",
        "211347.572000",
        "211347.508000",
        "211347.574000",
        "211347.510000",
        "211347.577000",
        "211347.512000",
        "211347.579000",
        "211347.515000",
        "211347.581000",
        "211347.517000",
        "211347.583000",
        "211347.519000",
        "211347.585000",
        "211347.521000",
        "211347.588000",
        "211347.523000",
        "211347.590000",
        "211347.525000",
        "211347.592000",
        "211347.527000",
        "211347.594000",
        "211347.529000",
        "211347.596000",
        "211347.531000",
        "211347.598000",
        "211347.546000",
        "211347.600000",
        "211347.548000",
        "211347.602000",
        "211347.550000",
        "211347.604000",
        "211347.553000",
        "211347.605000",
        "211347.555000",
        "211347.607000",
        "211347.557000"
      ],
      "CsaImage.ICE_Dims": [
        "X_2_1_1_1_1_1_25_1_1_1_1_138",
        "X_2_1_1_1_1_1_1_1_1_2_1_138",
        "X_2_1_1_1_1_1_26_1_1_3_1_138",
        "X_2_1_1_1_1_1_2_1_1_4_1_138",
        "X_2_1_1_1_1_1_27_1_1_5_1_138",
        "X_2_1_1_1_1_1_3_1_1_6_1_138",
        "X_2_1_1_1_1_1_28_1_1_7_1_138",
        "X_2_1_1_1_1_1_4_1_1_8_1_138",
        "X_2_1_1_1_1_1_29_1_1_9_1_138",
        "X_2_1_1_1_1_1_5_1_1_10_1_138",
        "X_2_1_1_1_1_1_30_1_1_11_1_138",
        "X_2_1_1_1_1_1_6_1_1_12_1_138",
        "X_2_1_1_1_1_1_31_1_1_13_1_138",
        "X_2_1_1_1_1_1_7_1_1_14_1_138",
        "X_2_1_1_1_1_1_32_1_1_15_1_138",
        "X_2_1_1_1_1_1_8_1_1_16_1_138",
        "X_2_1_1_1_1_1_33_1_1_17_1_138",
        "X_2_1_1_1_1_1_9_1_1_18_1_138",
        "X_2_1_1_1_1_1_34_1_1_19_1_138",
        "X_2_1_1_1_1_1_10_1_1_20_1_138",
        "X_2_1_1_1_1_1_35_1_1_21_1_138",
        "X_2_1_1_1_1_1_11_1_1_22_1_138",
        "X_2_1_1_1_1_1_36_1_1_23_1_138",
        "X_2_1_1_1_1_1_12_1_1_24_1_138",
        "X_2_1_1_1_1_1_37_1_1_25_1_138",
        "X_2_1_1_1_1_1_13_1_1_26_1_138",
        "X_2_1_1_1_1_1_38_1_1_27_1_138",
        "X_2_1_1_1_1_1_14_1_1_28_1_138",
        "X_2_1_1_1_1_1_39_1_1_29_1_138",
        "X_2_1_1_1_1_1_15_1_1_30_1_138",
        "X_2_1_1_1_1_1_40_1_1_31_1_138",
        "X_2_1_1_1_1_1_16_1_1_32_1_138",
        "X_2_1_1_1_1_1_41_1_1_33_1_138",
        "X_2_1_1_1_1_1_17_1_1_34_1_138",
        "X_2_1_1_1_1_1_42_1_1_35_1_138",
        "X_2_1_1_1_1_1_18_1_1_36_1_138",
        "X_2_1_1_1_1_1_43_1_1_37_1_138",
        "X_2_1_1_1_1_1_19_1_1_38_1_138",
        "X_2_1_1_1_1_1_44_1_1_39_1_138",
        "X_2_1_1_1_1_1_20_1_1_40_1_138",
        "X_2_1_1_1_1_1_45_1_1_41_1_138",
        "X_2_1_1_1_1_1_21_1_1_42_1_138",
        "X_2_1_1_1_1_1_46_1_1_43_1_138",
        "X_2_1_1_1_1_1_22_1_1_44_1_138",
        "X_2_1_1_1_1_1_47_1_1_45_1_138",
        "X_2_1_1_1_1_1_23_1_1_46_1_138",
        "X_2_1_1_1_1_1_48_1_1_47_1_138",
        "X_2_1_1_1_1_1_24_1_1_48_1_138"
      ],
      "CsaImage.ProtocolSliceNumber": [
        0,
        1,
        2,
        3,
        4,
        5,
        6,
        7,
        8,
        9,
        10,
        11,
        12,
        13,
        14,
        15,
        16,
        17,
        18,
        19,
        20,
        21,
        22,
        23,
        24,
        25,
        26,
        27,
        28,
        29,
        30,
        31,
        32,
        33,
        34,
        35,
        36,
        37,
        38,
        39,
        40,
        41,
        42,
        43,
        44,
        45,
        46,
        47
      ],
      "CsaImage.SlicePosition_PCS": [
        [
          -126.56253828,
          -126.62525807,
          -70.8976039
        ],
        [
          -126.4713241,
          -126.63994561,
          -68.39931289
        ],
        [
          -126.38010969,
          -126.6546322,
          -65.90102187
        ],
        [
          -126.28889527,
          -126.66931973,
          -63.40273085
        ],
        [
          -126.19768097,
          -126.68400632,
          -60.90443984
        ],
        [
          -126.10646655,
          -126.69869386,
          -58.40614501
        ],
        [
          -126.01525225,
          -126.71338139,
          -55.90785399
        ],
        [
          -125.92403783,
          -126.72806798,
          -53.40955916
        ],
        [
          -125.83282353,
          -126.74275552,
          -50.91126815
        ],
        [
          -125.74160911,
          -126.7574421,
          -48.41297713
        ],
        [
          -125.65039482,
          -126.77212964,
          -45.9146823
        ],
        [
          -125.55918052,
          -126.78681622,
          -43.41639129
        ],
        [
          -125.4679661,
          -126.80150376,
          -40.91810027
        ],
        [
          -125.37675174,
          -126.81619035,
          -38.41980544
        ],
        [
          -125.28553738,
          -126.83087789,
          -35.92151442
        ],
        [
          -125.19432302,
          -126.84556542,
          -33.42322341
        ],
        [
          -125.10310866,
          -126.86025201,
          -30.92492858
        ],
        [
          -125.0118943,
          -126.87493955,
          -28.42663756
        ],
        [
          -124.92067997,
          -126.88962613,
          -25.92834464
        ],
        [
          -124.82946562,
          -126.90431367,
          -23.43005362
        ],
        [
          -124.73825126,
          -126.91900025,
          -20.9317607
        ],
        [
          -124.6470369,
          -126.93368779,
          -18.43346778
        ],
        [
          -124.55582253,
          -126.94837438,
          -15.93517676
        ],
        [
          -124.46460818,
          -126.96306191,
          -13.43688384
        ],
        [
          -124.37339382,
          -126.97774945,
          -10.93859187
        ],
        [
          -124.28217946,
          -126.99243604,
          -8.44029895
        ],
        [
          -124.1909651,
          -127.00712357,
          -5.94200698
        ],
        [
          -124.09975075,
          -127.02181016,
          -3.44371453
        ],
        [
          -124.00853639,
          -127.0364977,
          -0.94542256
        ],
        [
          -123.91732206,
          -127.05118428,
          1.55286988
        ],
        [
          -123.8261077,
          -127.06587182,
          4.05116209
        ],
        [
          -123.73489334,
          -127.0805584,
          6.5494543
        ],
        [
          -123.64367898,
          -127.09524594,
          9.04774675
        ],
        [
          -123.55246462,
          -127.10993253,
          11.54603871
        ],
        [
          -123.46125026,
          -127.12462007,
          14.04433068
        ],
        [
          -123.3700359,
          -127.1393076,
          16.54262361
        ],
        [
          -123.27882149,
          -127.15399419,
          19.04091558
        ],
        [
          -123.18760719,
          -127.16868173,
          21.53920755
        ],
        [
          -123.09639277,
          -127.18336831,
          24.03750047
        ],
        [
          -123.00517847,
          -127.19805585,
          26.53579339
        ],
        [
          -122.91396417,
          -127.21274243,
          29.03408441
        ],
        [
          -122.82274975,
          -127.22742997,
          31.53237733
        ],
        [
          -122.73153545,
          -127.24211656,
          34.03066835
        ],
        [
          -122.64032103,
          -127.25680409,
          36.52896318
        ],
        [
          -122.54910674,
          -127.27149163,
          39.02725419
        ],
        [
          -122.45789232,
          -127.28617822,
          41.52554521
        ],
        [
          -122.3666779,
          -127.30086575,
          44.02384004
        ],
        [
          -122.27546372,
          -127.31555234,
          46.52213105
        ]
      ],
      "CsaImage.TimeAfterStart": [
        1.015,
        0.6775,
        1.03,
        0.6925,
        1.0425,
        0.705,
        1.0575,
        0.72,
        1.0725,
        0.735,
        1.085,
        0.7475,
        1.1,
        0.7625,
        1.115,
        0.7775,
        1.1275,
        0.79,
        1.1425,
        0.805,
        1.155,
        0.8175,
        1.17,
        0.8325,
        1.185,
        0.8475,
        1.1975,
        0.86,
        1.2125,
        0.875,
        1.2275,
        0.89,
        1.24,
        0.9025,
        1.255,
        0.9175,
        1.2675,
        0.93,
        1.2825,
        0.945,
        1.2975,
        0.96,
        1.31,
        0.9725,
        1.325,
        0.9875,
        1.34,
        1.0025
      ],
      "ImagePositionPatient": [
        [
          -126.56253828439,
          -126.62525807341,
          -70.897603901398
        ],
        [
          -126.4713241044,
          -126.63994561156,
          -68.399312885773
        ],
        [
          -126.38010968599,
          -126.65463219603,
          -65.901021870148
        ],
        [
          -126.28889526758,
          -126.66931973418,
          -63.402730854523
        ],
        [
          -126.19768096838,
          -126.68400631865,
          -60.904439838898
        ],
        [
          -126.10646654996,
          -126.6986938568,
          -58.406145008575
        ],
        [
          -126.01525225076,
          -126.71338139494,
          -55.90785399295
        ],
        [
          -125.92403783235,
          -126.72806797942,
          -53.409559162628
        ],
        [
          -125.83282353315,
          -126.74275551756,
          -50.911268147003
        ],
        [
          -125.74160911474,
          -126.75744210204,
          -48.412977131378
        ],
        [
          -125.65039481554,
          -126.77212964018,
          -45.914682301056
        ],
        [
          -125.55918051633,
          -126.78681622466,
          -43.416391285431
        ],
        [
          -125.46796609792,
          -126.8015037628,
          -40.918100269806
        ],
        [
          -125.37675173912,
          -126.81619034728,
          -38.419805439484
        ],
        [
          -125.28553738031,
          -126.83087788542,
          -35.921514423859
        ],
        [
          -125.1943230215,
          -126.84556542357,
          -33.423223408234
        ],
        [
          -125.1031086627,
          -126.86025200804,
          -30.924928577911
        ],
        [
          -125.01189430389,
          -126.87493954619,
          -28.426637562286
        ],
        [
          -124.92067997489,
          -126.88962613066,
          -25.928344639313
        ],
        [
          -124.82946561608,
          -126.90431366881,
          -23.430053623688
        ],
        [
          -124.73825125727,
          -126.91900025328,
          -20.931760700714
        ],
        [
          -124.64703689847,
          -126.93368779143,
          -18.43346777774
        ],
        [
          -124.55582253221,
          -126.9483743759,
          -15.935176762115
        ],
        [
          -124.46460817899,
          -126.96306191405,
          -13.436883839142
        ],
        [
          -124.37339382205,
          -126.9777494522,
          -10.938591869842
        ],
        [
          -124.28217946324,
          -126.99243603667,
          -8.4402989468688
        ],
        [
          -124.19096510443,
          -127.00712357481,
          -5.9420069775695
        ],
        [
          -124.09975074563,
          -127.02181015929,
          -3.443714531433
        ],
        [
          -124.00853638682,
          -127.03649769743,
          -0.9454225621337
        ],
        [
          -123.91732205782,
          -127.05118428191,
          1.5528698840028
        ],
        [
          -123.82610769901,
          -127.06587182005,
          4.0511620917206
        ],
        [
          -123.7348933402,
          -127.08055840453,
          6.5494542994385
        ],
        [
          -123.6436789814,
          -127.09524594267,
          9.047746745575
        ],
        [
          -123.55246462259,
          -127.10993252715,
          11.546038714874
        ],
        [
          -123.46125026378,
          -127.12462006529,
          14.044330684174
        ],
        [
          -123.37003590498,
          -127.13930760344,
          16.542623607147
        ],
        [
          -123.27882148656,
          -127.15399418791,
          19.040915576447
        ],
        [
          -123.18760718736,
          -127.16868172606,
          21.539207545746
        ],
        [
          -123.09639276895,
          -127.18336831053,
          24.03750046872
        ],
        [
          -123.00517846975,
          -127.19805584868,
          26.535793391693
        ],
        [
          -122.91396417055,
          -127.21274243315,
          29.034084407318
        ],
        [
          -122.82274975214,
          -127.2274299713,
          31.532377330292
        ],
        [
          -122.73153545293,
          -127.24211655577,
          34.030668345917
        ],
        [
          -122.64032103452,
          -127.25680409392,
          36.528963176239
        ],
        [
          -122.54910673532,
          -127.27149163207,
          39.027254191864
        ],
        [
          -122.45789231691,
          -127.28617821654,
          41.525545207489
        ],
        [
          -122.3666778985,
          -127.30086575469,
          44.023840037811
        ],
        [
          -122.27546371851,
          -127.31555233916,
          46.522131053436
        ]
      ],
      "InstanceCreationTime": [
        "211347.560000",
        "211347.496000",
        "211347.562000",
        "211347.498000",
        "211347.564000",
        "211347.500000",
        "211347.566000",
        "211347.502000",
        "211347.568000",
        "211347.504000",
        "211347.570000",
        "211347.506000",
        "211347.572000",
        "211347.508000",
        "211347.574000",
        "211347.510000",
        "211347.577000",
        "211347.512000",
        "211347.579000",
        "211347.515000",
        "211347.581000",
        "211347.517000",
        "211347.583000",
        "211347.519000",
        "211347.585000",
        "211347.521000",
        "211347.588000",
        "211347.523000",
        "211347.590000",
        "211347.525000",
        "211347.592000",
        "211347.527000",
        "211347.594000",
        "211347.529000",
        "211347.596000",
        "211347.531000",
        "211347.598000",
        "211347.546000",
        "211347.600000",
        "211347.548000",
        "211347.602000",
        "211347.550000",
        "211347.604000",
        "211347.553000",
        "211347.605000",
        "211347.555000",
        "211347.607000",
        "211347.557000"
      ],
      "InstanceNumber": [
        1,
        2,
        3,
        4,
        5,
        6,
        7,
        8,
        9,
        10,
        11,
        12,
        13,
        14,
        15,
        16,
        17,
        18,
        19,
        20,
        21,
        22,
        23,
        24,
        25,
        26,
        27,
        28,
        29,
        30,
        31,
        32,
        33,
        34,
        35,
        36,
        37,
        38,
        39,
        40,
        41,
        42,
        43,
        44,
        45,
        46,
        47,
        48
      ],
      "LargestImagePixelValue": [
        4093,
        4094,
        4094,
        4094,
        4094,
        4093,
        4094,
        4093,
        4092,
        4094,
        4095,
        4094,
        4094,
        4095,
        4095,
        4090,
        4094,
        4087,
        4093,
        4094,
        4089,
        4092,
        4092,
        4091,
        4088,
        4093,
        4092,
        4095,
        4092,
        4091,
        4091,
        4091,
        4090,
        4082,
        4092,
        4093,
        4093,
        4095,
        4095,
        4094,
        4094,
        4094,
        4094,
        4095,
        4094,
        4094,
        4094,
        4095
      ],
      "SliceLocation": [
        -74.722998672162,
        -72.22299992233,
        -69.723001169402,
        -67.223002410871,
        -64.723003662292,
        -62.22300109167,
        -59.723002337489,
        -57.222999772469,
        -54.723001018288,
        -52.22300226536,
        -49.722999699087,
        -47.223000950509,
        -44.723002191978,
        -42.222999629133,
        -39.723000872777,
        -37.223002116421,
        -34.722999553576,
        -32.22300079722,
        -29.723000141508,
        -27.223001385152,
        -24.723000728353,
        -22.223000065951,
        -19.723001314926,
        -17.223000652728,
        -14.723000943417,
        -12.223000286618,
        -9.7230005772395,
        -7.2230003969518,
        -4.7230006875729,
        -2.2230005083726,
        0.27699943926198,
        2.7769993812939,
        5.2769995671842,
        7.7769992709605,
        10.276998980339,
        12.776999642741,
        15.276999348692,
        17.776999055896,
        20.27699971487,
        22.777000375097,
        25.276999123676,
        27.776999788252,
        30.276998536831,
        32.777001107453,
        35.276999861634,
        37.776998614562,
        40.277001185185,
        42.776999929414
      ],
      "SmallestImagePixelValue": [
        0,
        0,
        0,
        1,
        0,
        0,
        0,
        1,
        2,
        2,
        0,
        0,
        1,
        2,
        0,
        0,
        0,
        0,
        2,
        0,
        2,
        0,
        0,
        0,
        6,
        2,
        3,
        10,
        9,
        5,
        0,
        0,
        2,
        5,
        1,
        7,
        8,
        1,
        3,
        0,
        3,
        0,
        5,
        1,
        0,
        0,
        0,
        1
      ],
      "WindowCenter": [
        -228.0,
        -156.0,
        -138.0,
        -200.0,
        -178.0,
        -148.0,
        -180.0,
        -106.0,
        -174.0,
        -102.0,
        -88.0,
        -118.0,
        -154.0,
        -140.0,
        -162.0,
        -170.0,
        -78.0,
        -148.0,
        -118.0,
        -78.0,
        -152.0,
        -146.0,
        -246.0,
        -198.0,
        -184.0,
        -152.0,
        -76.0,
        -174.0,
        -182.0,
        -210.0,
        -246.0,
        -130.0,
        -230.0,
        -240.0,
        -216.0,
        -224.0,
        -224.0,
        -276.0,
        -262.0,
        -310.0,
        -264.0,
        -274.0,
        -146.0,
        -278.0,
        -232.0,
        -176.0,
        -174.0,
        -232.0
      ],
      "WindowWidth": [
        6268.0,
        6350.0,
        6312.0,
        6266.0,
        6248.0,
        6218.0,
        6128.0,
        6238.0,
        6068.0,
        6122.0,
        5954.0,
        5980.0,
        5852.0,
        5908.0,
        5800.0,
        5906.0,
        5806.0,
        5688.0,
        5616.0,
        5622.0,
        5380.0,
        5292.0,
        4602.0,
        4574.0,
        4544.0,
        4530.0,
        4864.0,
        4556.0,
        4544.0,
        4576.0,
        4586.0,
        5332.0,
        4564.0,
        4584.0,
        4564.0,
        4578.0,
        4580.0,
        4626.0,
        4632.0,
        4690.0,
        4660.0,
        4684.0,
        5148.0,
        4748.0,
        5524.0,
        5794.0,
        5938.0,
        5986.0
      ]
    }
  }
}