{
  "AcquisitionMatrixPE": 96,
  "AcquisitionNumber": 1,
  "AcquisitionTime": "21:24:13.990000",
  "BandwidthPerPixelPhaseEncode": 18.939,
  "BaseResolution": 96,
  "BodyPartExamined": "BRAIN",
  "ConsistencyInfo": "N4_VE11C_LATEST_20160120",
  "ConversionSoftware": "dcm2niix",
  "ConversionSoftwareVersion": "v1.0.20190902",
  "DerivedVendorReportedEchoSpacing": 0.000550011,
  "DeviceSerialNumber": "66112",
  "DwellTime": 2.2e-06,
  "EchoTime": 0.033,
  "EchoTrainLength": 96,
  "EffectiveEchoSpacing": 0.000550011,
  "FlipAngle": 59,
  "ImageOrientationPatientDICOM": [0.997916, 0.0452447, -0.0460085, -0.0489808, 0.995294, -0.083613],
  "ImageType": [
    "ORIGINAL",
    "PRIMARY",
    "FMRI",
    "NONE",
    "ND",
    "NORM",
    "MOSAIC"
],
  "ImagingFrequency": 123.252,
  "InPlanePhaseEncodingDirectionDICOM": "COL",
  "InstitutionAddress": "Maynard_3_Hanover_NH_US_03755",
  "InstitutionName": "Dartmouth_College_-_PBS",
  "InstitutionalDepartmentName": "Department",
  "MRAcquisitionType": "2D",
  "MagneticFieldStrength": 3,
  "Manufacturer": "Siemens",
  "ManufacturersModelName": "Prisma",
  "Modality": "MR",
  "MultibandAccelerationFactor": 4,
  "PartialFourier": 1,
  "PatientPosition": "HFS",
  "PercentPhaseFOV": 100,
  "PhaseEncodingDirection": "j-",
  "PhaseEncodingSteps": 96,
  "PhaseResolution": 1,
  "PixelBandwidth": 2365,
  "ProcedureStepDescription": "Gobbini_Matteo_1037_budapest",
  "ProtocolName": "func_run-04_task-movie",
  "PulseSequenceDetails": "%SiemensSeq%_ep2d_bold",
  "ReceiveCoilActiveElements": "HEA;HEP",
  "ReceiveCoilName": "Head_32",
  "ReconMatrixPE": 96,
  "RefLinesPE": 12,
  "RepetitionTime": 1,
  "SAR": 0.0519159,
  "ScanOptions": "FS",
  "ScanningSequence": "EP",
  "SequenceName": "_epfid2d1_96",
  "SequenceVariant": "SK",
  "SeriesDescription": "func_run-04_task-movie",
  "SeriesNumber": 29,
  "ShimSetting": [4125, -7699, -7366, 663, 13, -145, 58, 89],
  "SliceThickness": 2.5,
  "SliceTiming": [0.735, 0, 0.49, 0.08, 0.57, 0.1625, 0.6525, 0.325, 0.815, 0.4075, 0.8975, 0.245, 0.735, 0, 0.49, 0.08, 0.57, 0.1625, 0.6525, 0.325, 0.815, 0.4075, 0.8975, 0.245, 0.735, 0, 0.49, 0.08, 0.57, 0.1625, 0.6525, 0.325, 0.815, 0.4075, 0.8975, 0.245, 0.735, 0, 0.49, 0.08, 0.57, 0.1625, 0.6525, 0.325, 0.815, 0.4075, 0.8975, 0.245],
  "SoftwareVersions": "syngo_MR_E11",
  "SpacingBetweenSlices": 2.5,
  "StationName": "AWP66112",
  "TaskName": "movie",
  "TotalReadoutTime": 0.0522511,
  "TxRefAmp": 271.651,
  "dcmmeta_affine": [
    [-2.4947898387908936, -0.12245197594165802, -0.10502239316701889, 130.5638885498047],
    [-0.11311182379722595, 2.488234519958496, -0.2142307460308075, -100.74993896484375],
    [-0.11502132564783096, 0.2090325653553009, 2.48858904838562, -103.25031280517578],
    [0.0, 0.0, 0.0, 1.0]
],
  "dcmmeta_reorient_transform": [
    [0.0, -1.0, 0.0, 95.0],
    [1.0, 0.0, 0.0, 0.0],
    [0.0, 0.0, 1.0, 0.0],
    [0.0, 0.0, 0.0, 1.0]
],
  "dcmmeta_shape": [96, 96, 48, 618],
  "dcmmeta_slice_dim": 2,
  "dcmmeta_version": 0.6,
  "global": {
    "const": {
      "AccessionNumber": "A001332",
      "AcquisitionMatrix": [96, 0, 0, 96],
      "AngioFlag": "N",
      "BitsAllocated": 16,
      "BitsStored": 12,
      "BodyPartExamined": "BRAIN",
      "Columns": 672,
      "EchoNumbers": 1,
      "EchoTime": 33.0,
      "EchoTrainLength": 96,
      "FlipAngle": 59.0,
      "HighBit": 11,
      "ImageOrientationPatient": [0.99791589303334, 0.04524472835718, -0.0460085316801, -0.0489807911709, 0.99529379804064, -0.0836130233762],
      "ImagePositionPatient": [-802.16422761079, -884.82007953562, 9.9352983859],
      "ImageType": [
        "ORIGINAL",
        "PRIMARY",
        "FMRI",
        "NONE",
        "ND",
        "NORM",
        "MOSAIC"
],
      "ImagedNucleus": "1H",
      "ImagingFrequency": 123.252355,
      "InPlanePhaseEncodingDirection": "COL",
      "MRAcquisitionType": "2D",
      "MagneticFieldStrength": 3.0,
      "Manufacturer": "SIEMENS",
      "ManufacturerModelName": "Prisma",
      "Modality": "MR",
      "NumberOfAverages": 1.0,
      "NumberOfPhaseEncodingSteps": 96,
      "PercentPhaseFieldOfView": 100.0,
      "PercentSampling": 100.0,
      "PerformedProcedureStepStartTime": "203808.729000",
      "PhotometricInterpretation": "MONOCHROME2",
      "PixelBandwidth": 2365.0,
      "PixelRepresentation": 0,
      "PixelSpacing": [2.5, 2.5],
      "ProtocolName": "func_run-04_task-movie",
      "RepetitionTime": 1000.0,
      "Rows": 672,
      "SAR": 0.05191591517223,
      "SamplesPerPixel": 1,
      "ScanOptions": "FS",
      "ScanningSequence": "EP",
      "SequenceName": "*epfid2d1_96",
      "SequenceVariant": "SK",
      "SeriesDescription": "func_run-04_task-movie",
      "SeriesNumber": 29,
      "SeriesTime": "212414.888000",
      "SliceLocation": -99.630400156061,
      "SliceThickness": 2.5,
      "SmallestImagePixelValue": 0,
      "SoftwareVersions": "syngo MR E11",
      "SpacingBetweenSlices": 2.4999999702916,
      "SpecificCharacterSet": "ISO_IR 100",
      "StudyID": "1",
      "StudyTime": "203808.668000",
      "TransmitCoilName": "Body",
      "VariableFlipAngleFlag": "N",
      "WindowCenterWidthExplanation": "Algo1",
      "dBdt": 0.0},
    "slices": {}
  },
  "time": {
    "samples": {
      "AcquisitionNumber": [1, 2, 3, 4, 5, 6, 7, 8, 9, 10, 11, 12, 13, 14, 15, 16, 17, 18, 19, 20, 21, 22, 23, 24, 25, 26, 27, 28, 29, 30, 31, 32, 33, 34, 35, 36, 37, 38, 39, 40, 41, 42, 43, 44, 45, 46, 47, 48, 49, 50, 51, 52, 53, 54, 55, 56, 57, 58, 59, 60, 61, 62, 63, 64, 65, 66, 67, 68, 69, 70, 71, 72, 73, 74, 75, 76, 77, 78, 79, 80, 81, 82, 83, 84, 85, 86, 87, 88, 89, 90, 91, 92, 93, 94, 95, 96, 97, 98, 99, 100, 101, 102, 103, 104, 105, 106, 107, 108, 109, 110, 111, 112, 113, 114, 115, 116, 117, 118, 119, 120, 121, 122, 123, 124, 125, 126, 127, 128, 129, 130, 131, 132, 133, 134, 135, 136, 137, 138, 139, 140, 141, 142, 143, 144, 145, 146, 147, 148, 149, 150, 151, 152, 153, 154, 155, 156, 157, 158, 159, 160, 161, 162, 163, 164, 165, 166, 167, 168, 169, 170, 171, 172, 173, 174, 175, 176, 177, 178, 179, 180, 181, 182, 183, 184, 185, 186, 187, 188, 189, 190, 191, 192, 193, 194, 195, 196, 197, 198, 199, 200, 201, 202, 203, 204, 205, 206, 207, 208, 209, 210, 211, 212, 213, 214, 215, 216, 217, 218, 219, 220, 221, 222, 223, 224, 225, 226, 227, 228, 229, 230, 231, 232, 233, 234, 235, 236, 237, 238, 239, 240, 241, 242, 243, 244, 245, 246, 247, 248, 249, 250, 251, 252, 253, 254, 255, 256, 257, 258, 259, 260, 261, 262, 263, 264, 265, 266, 267, 268, 269, 270, 271, 272, 273, 274, 275, 276, 277, 278, 279, 280, 281, 282, 283, 284, 285, 286, 287, 288, 289, 290, 291, 292, 293, 294, 295, 296, 297, 298, 299, 300, 301, 302, 303, 304, 305, 306, 307, 308, 309, 310, 311, 312, 313, 314, 315, 316, 317, 318, 319, 320, 321, 322, 323, 324, 325, 326, 327, 328, 329, 330, 331, 332, 333, 334, 335, 336, 337, 338, 339, 340, 341, 342, 343, 344, 345, 346, 347, 348, 349, 350, 351, 352, 353, 354, 355, 356, 357, 358, 359, 360, 361, 362, 363, 364, 365, 366, 367, 368, 369, 370, 371, 372, 373, 374, 375, 376, 377, 378, 379, 380, 381, 382, 383, 384, 385, 386, 387, 388, 389, 390, 391, 392, 393, 394, 395, 396, 397, 398, 399, 400, 401, 402, 403, 404, 405, 406, 407, 408, 409, 410, 411, 412, 413, 414, 415, 416, 417, 418, 419, 420, 421, 422, 423, 424, 425, 426, 427, 428, 429, 430, 431, 432, 433, 434, 435, 436, 437, 438, 439, 440, 441, 442, 443, 444, 445, 446, 447, 448, 449, 450, 451, 452, 453, 454, 455, 456, 457, 458, 459, 460, 461, 462, 463, 464, 465, 466, 467, 468, 469, 470, 471, 472, 473, 474, 475, 476, 477, 478, 479, 480, 481, 482, 483, 484, 485, 486, 487, 488, 489, 490, 491, 492, 493, 494, 495, 496, 497, 498, 499, 500, 501, 502, 503, 504, 505, 506, 507, 508, 509, 510, 511, 512, 513, 514, 515, 516, 517, 518, 519, 520, 521, 522, 523, 524, 525, 526, 527, 528, 529, 530, 531, 532, 533, 534, 535, 536, 537, 538, 539, 540, 541, 542, 543, 544, 545, 546, 547, 548, 549, 550, 551, 552, 553, 554, 555, 556, 557, 558, 559, 560, 561, 562, 563, 564, 565, 566, 567, 568, 569, 570, 571, 572, 573, 574, 575, 576, 577, 578, 579, 580, 581, 582, 583, 584, 585, 586, 587, 588, 589, 590, 591, 592, 593, 594, 595, 596, 597, 598, 599, 600, 601, 602, 603, 604, 605, 606, 607, 608, 609, 610, 611, 612, 613, 614, 615, 616, 617, 618],
      "AcquisitionTime": ["212413.990000", "212414.990000", "212415.990000", "212416.990000", "212417.990000", "212418.990000", "212419.990000", "212420.990000", "212421.990000", "212422.990000", "212423.990000", "212424.990000", "212425.990000", "212426.990000", "212427.990000", "212428.990000", "212429.990000", "212430.990000", "212431.990000", "212432.990000", "212433.990000", "212434.990000", "212435.990000", "212436.990000", "212437.990000", "212438.990000", "212439.990000", "212440.990000", "212441.990000", "212442.990000", "212443.990000", "212444.990000", "212445.990000", "212446.990000", "212447.990000", "212448.990000", "212449.990000", "212450.990000", "212451.990000", "212452.990000", "212453.990000", "212454.990000", "212455.990000", "212456.990000", "212457.990000", "212458.990000", "212459.990000", "212500.990000", "212501.990000", "212502.990000", "212503.990000", "212504.990000", "212505.990000", "212506.990000", "212507.990000", "212508.990000", "212509.990000", "212510.990000", "212511.990000", "212512.990000", "212513.990000", "212514.990000", "212515.990000", "212516.990000", "212517.990000", "212518.990000", "212519.990000", "212520.990000", "212521.990000", "212522.990000", "212523.990000", "212524.990000", "212525.990000", "212526.990000", "212527.990000", "212528.990000", "212529.990000", "212530.990000", "212531.990000", "212532.990000", "212533.990000", "212534.990000", "212535.990000", "212536.990000", "212537.990000", "212538.990000", "212539.990000", "212540.990000", "212541.990000", "212542.990000", "212543.990000", "212544.990000", "212545.990000", "212546.990000", "212547.990000", "212548.990000", "212549.990000", "212550.990000", "212551.990000", "212552.990000", "212553.990000", "212554.990000", "212555.990000", "212556.990000", "212557.990000", "212558.990000", "212559.990000", "212600.990000", "212601.990000", "212602.990000", "212603.990000", "212604.990000", "212605.990000", "212606.990000", "212607.990000", "212608.990000", "212609.990000", "212610.990000", "212611.990000", "212612.990000", "212613.990000", "212614.990000", "212615.990000", "212616.990000", "212617.990000", "212618.990000", "212619.990000", "212620.990000", "212621.990000", "212622.990000", "212623.990000", "212624.990000", "212625.990000", "212626.990000", "212627.990000", "212628.990000", "212629.990000", "212630.990000", "212631.990000", "212632.990000", "212633.990000", "212634.990000", "212635.990000", "212636.990000", "212637.990000", "212638.990000", "212639.990000", "212640.990000", "212641.990000", "212642.990000", "212643.990000", "212644.990000", "212645.990000", "212646.990000", "212647.990000", "212648.990000", "212649.990000", "212650.990000", "212651.990000", "212652.990000", "212653.990000", "212654.990000", "212655.990000", "212656.990000", "212657.990000", "212658.990000", "212659.990000", "212700.990000", "212701.990000", "212702.990000", "212703.990000", "212704.990000", "212705.990000", "212706.990000", "212707.990000", "212708.990000", "212709.990000", "212710.990000", "212711.990000", "212712.990000", "212713.990000", "212714.990000", "212715.990000", "212716.990000", "212717.990000", "212718.990000", "212719.990000", "212720.990000", "212721.990000", "212722.990000", "212723.990000", "212724.990000", "212725.990000", "212726.990000", "212727.990000", "212728.990000", "212729.990000", "212730.990000", "212731.990000", "212732.990000", "212733.990000", "212734.990000", "212735.990000", "212736.990000", "212737.990000", "212738.990000", "212739.990000", "212740.990000", "212741.990000", "212742.990000", "212743.990000", "212744.990000", "212745.990000", "212746.990000", "212747.990000", "212748.990000", "212749.990000", "212750.990000", "212751.990000", "212752.990000", "212753.990000", "212754.990000", "212755.990000", "212756.990000", "212757.990000", "212758.990000", "212759.990000", "212800.990000", "212801.990000", "212802.990000", "212803.990000", "212804.990000", "212805.990000", "212806.990000", "212807.990000", "212808.990000", "212809.990000", "212810.990000", "212811.990000", "212812.990000", "212813.990000", "212814.990000", "212815.990000", "212816.990000", "212817.990000", "212818.990000", "212819.990000", "212820.990000", "212821.990000", "212822.990000", "212823.990000", "212824.990000", "212825.990000", "212826.990000", "212827.990000", "212828.990000", "212829.990000", "212830.990000", "212831.990000", "212832.990000", "212833.990000", "212834.990000", "212835.990000", "212836.990000", "212837.990000", "212838.990000", "212839.990000", "212840.990000", "212841.990000", "212842.990000", "212843.990000", "212844.990000", "212845.990000", "212846.990000", "212847.990000", "212848.990000", "212849.990000", "212850.990000", "212851.990000", "212852.990000", "212853.990000", "212854.990000", "212855.990000", "212856.990000", "212857.990000", "212858.990000", "212859.990000", "212900.990000", "212901.990000", "212902.990000", "212903.990000", "212904.990000", "212905.990000", "212906.990000", "212907.990000", "212908.990000", "212909.990000", "212910.990000", "212911.990000", "212912.990000", "212913.990000", "212914.990000", "212915.990000", "212916.990000", "212917.990000", "212918.990000", "212919.990000", "212920.990000", "212921.990000", "212922.990000", "212923.990000", "212924.990000", "212925.990000", "212926.990000", "212927.990000", "212928.990000", "212929.990000", "212930.990000", "212931.990000", "212932.990000", "212933.990000", "212934.990000", "212935.990000", "212936.990000", "212937.990000", "212938.990000", "212939.990000", "212940.990000", "212941.990000", "212942.990000", "212943.990000", "212944.990000", "212945.990000", "212946.990000", "212947.990000", "212948.990000", "212949.990000", "212950.990000", "212951.990000", "212952.990000", "212953.990000", "212954.990000", "212955.990000", "212956.990000", "212957.990000", "212958.990000", "212959.990000", "213000.990000", "213001.990000", "213002.990000", "213003.990000", "213004.990000", "213005.990000", "213006.990000", "213007.990000", "213008.990000", "213009.990000", "213010.990000", "213011.990000", "213012.990000", "213013.990000", "213014.990000", "213015.990000", "213016.990000", "213017.990000", "213018.990000", "213019.990000", "213020.990000", "213021.990000", "213022.990000", "213023.990000", "213024.990000", "213025.990000", "213026.990000", "213027.990000", "213028.990000", "213029.990000", "213030.990000", "213031.990000", "213032.990000", "213033.990000", "213034.990000", "213035.990000", "213036.990000", "213037.990000", "213038.990000", "213039.990000", "213040.990000", "213041.990000", "213042.990000", "213043.990000", "213044.990000", "213045.990000", "213046.990000", "213047.990000", "213048.990000", "213049.990000", "213050.990000", "213051.990000", "213052.990000", "213053.990000", "213054.990000", "213055.990000", "213056.990000", "213057.990000", "213058.990000", "213059.990000", "213100.990000", "213101.990000", "213102.990000", "213103.990000", "213104.990000", "213105.990000", "213106.990000", "213107.990000", "213108.990000", "213109.990000", "213110.990000", "213111.990000", "213112.990000", "213113.990000", "213114.990000", "213115.990000", "213116.990000", "213117.990000", "213118.990000", "213119.990000", "213120.990000", "213121.990000", "213122.990000", "213123.990000", "213124.990000", "213125.990000", "213126.990000", "213127.990000", "213128.990000", "213129.990000", "213130.990000", "213131.990000", "213132.990000", "213133.990000", "213134.990000", "213135.990000", "213136.990000", "213137.990000", "213138.990000", "213139.990000", "213140.990000", "213141.990000", "213142.990000", "213143.990000", "213144.990000", "213145.990000", "213146.990000", "213147.990000", "213148.990000", "213149.990000", "213150.990000", "213151.990000", "213152.990000", "213153.990000", "213154.990000", "213155.990000", "213156.990000", "213157.990000", "213158.990000", "213159.990000", "213200.990000", "213201.990000", "213202.990000", "213203.990000", "213204.990000", "213205.990000", "213206.990000", "213207.990000", "213208.990000", "213209.990000", "213210.990000", "213211.990000", "213212.990000", "213213.990000", "213214.990000", "213215.990000", "213216.990000", "213217.990000", "213218.990000", "213219.990000", "213220.990000", "213221.990000", "213222.990000", "213223.990000", "213224.990000", "213225.990000", "213226.990000", "213227.990000", "213228.990000", "213229.990000", "213230.990000", "213231.990000", "213232.990000", "213233.990000", "213234.990000", "213235.990000", "213236.990000", "213237.990000", "213238.990000", "213239.990000", "213240.990000", "213241.990000", "213242.990000", "213243.990000", "213244.990000", "213245.990000", "213246.990000", "213247.990000", "213248.990000", "213249.990000", "213250.990000", "213251.990000", "213252.990000", "213253.990000", "213254.990000", "213255.990000", "213256.990000", "213257.990000", "213258.990000", "213259.990000", "213300.990000", "213301.990000", "213302.990000", "213303.990000", "213304.990000", "213305.990000", "213306.990000", "213307.990000", "213308.990000", "213309.990000", "213310.990000", "213311.990000", "213312.990000", "213313.990000", "213314.990000", "213315.990000", "213316.990000", "213317.990000", "213318.990000", "213319.990000", "213320.990000", "213321.990000", "213322.990000", "213323.990000", "213324.990000", "213325.990000", "213326.990000", "213327.990000", "213328.990000", "213329.990000", "213330.990000", "213331.990000", "213332.990000", "213333.990000", "213334.990000", "213335.990000", "213336.990000", "213337.990000", "213338.990000", "213339.990000", "213340.990000", "213341.990000", "213342.990000", "213343.990000", "213344.990000", "213345.990000", "213346.990000", "213347.990000", "213348.990000", "213349.990000", "213350.990000", "213351.990000", "213352.990000", "213353.990000", "213354.990000", "213355.990000", "213356.990000", "213357.990000", "213358.990000", "213359.990000", "213400.990000", "213401.990000", "213402.990000", "213403.990000", "213404.990000", "213405.990000", "213406.990000", "213407.990000", "213408.990000", "213409.990000", "213410.990000", "213411.990000", "213412.990000", "213413.990000", "213414.990000", "213415.990000", "213416.990000", "213417.990000", "213418.990000", "213419.990000", "213420.990000", "213421.990000", "213422.990000", "213423.990000", "213424.990000", "213425.990000", "213426.990000", "213427.990000", "213428.990000", "213429.990000", "213430.990000"],
      "ContentTime": ["212414.892000", "212415.693000", "212416.714000", "212417.733000", "212418.722000", "212419.697000", "212420.712000", "212421.686000", "212422.726000", "212423.763000", "212424.710000", "212425.697000", "212426.713000", "212427.726000", "212428.708000", "212429.668000", "212430.693000", "212431.714000", "212432.751000", "212433.710000", "212434.716000", "212435.719000", "212436.710000", "212437.693000", "212438.713000", "212439.695000", "212440.706000", "212441.685000", "212442.721000", "212443.706000", "212444.700000", "212445.706000", "212446.725000", "212447.716000", "212448.722000", "212449.705000", "212450.717000", "212451.704000", "212452.711000", "212453.704000", "212454.740000", "212455.703000", "212456.696000", "212457.721000", "212458.699000", "212459.729000", "212500.715000", "212501.699000", "212502.735000", "212503.710000", "212504.741000", "212505.690000", "212506.715000", "212507.787000", "212508.693000", "212509.738000", "212510.750000", "212511.695000", "212512.701000", "212513.739000", "212514.707000", "212515.743000", "212516.717000", "212517.702000", "212518.695000", "212519.707000", "212520.716000", "212521.736000", "212522.720000", "212523.727000", "212524.700000", "212525.701000", "212526.715000", "212527.711000", "212528.718000", "212529.718000", "212530.685000", "212531.701000", "212532.694000", "212533.746000", "212534.719000", "212535.716000", "212536.712000", "212537.698000", "212538.705000", "212539.692000", "212540.697000", "212541.682000", "212542.738000", "212543.689000", "212544.718000", "212545.681000", "212546.706000", "212547.704000", "212548.706000", "212549.704000", "212550.709000", "212551.697000", "212552.690000", "212553.709000", "212554.704000", "212555.701000", "212556.720000", "212557.705000", "212558.715000", "212559.712000", "212600.699000", "212601.705000", "212602.714000", "212603.714000", "212604.725000", "212605.731000", "212606.734000", "212607.721000", "212608.728000", "212609.707000", "212610.714000", "212611.713000", "212612.670000", "212613.664000", "212614.719000", "212615.732000", "212616.741000", "212617.719000", "212618.769000", "212619.713000", "212620.712000", "212621.708000", "212622.705000", "212623.697000", "212624.701000", "212625.751000", "212626.730000", "212627.710000", "212628.692000", "212629.733000", "212630.685000", "212631.703000", "212632.672000", "212633.712000", "212634.735000", "212635.713000", "212636.712000", "212637.713000", "212638.701000", "212639.703000", "212640.711000", "212641.723000", "212642.743000", "212643.711000", "212644.715000", "212645.711000", "212646.702000", "212647.703000", "212648.712000", "212649.737000", "212650.746000", "212651.730000", "212652.780000", "212653.725000", "212654.659000", "212655.689000", "212656.693000", "212657.706000", "212658.733000", "212659.714000", "212700.698000", "212701.713000", "212702.703000", "212703.696000", "212704.708000", "212705.707000", "212706.710000", "212707.706000", "212708.712000", "212709.754000", "212710.700000", "212711.720000", "212712.692000", "212713.749000", "212714.721000", "212715.726000", "212716.697000", "212717.744000", "212718.707000", "212719.749000", "212720.727000", "212721.726000", "212722.719000", "212723.763000", "212724.753000", "212725.713000", "212726.714000", "212727.703000", "212728.716000", "212729.734000", "212730.732000", "212731.736000", "212732.687000", "212733.710000", "212734.722000", "212735.706000", "212736.713000", "212737.718000", "212738.710000", "212739.713000", "212740.709000", "212741.716000", "212742.716000", "212743.701000", "212744.706000", "212745.710000", "212746.694000", "212747.702000", "212748.707000", "212749.717000", "212750.702000", "212751.715000", "212752.725000", "212753.685000", "212754.714000", "212755.685000", "212756.713000", "212757.705000", "212758.712000", "212759.728000", "212800.687000", "212801.724000", "212802.714000", "212803.704000", "212804.710000", "212805.700000", "212806.714000", "212807.718000", "212808.724000", "212809.689000", "212810.707000", "212811.718000", "212812.709000", "212813.697000", "212814.708000", "212815.709000", "212816.714000", "212817.700000", "212818.715000", "212819.726000", "212820.701000", "212821.712000", "212822.722000", "212823.721000", "212824.689000", "212825.702000", "212826.697000", "212827.684000", "212828.717000", "212829.690000", "212830.710000", "212831.711000", "212832.712000", "212833.700000", "212834.688000", "212835.709000", "212836.743000", "212837.717000", "212838.710000", "212839.706000", "212840.751000", "212841.685000", "212842.709000", "212843.713000", "212844.704000", "212845.704000", "212846.701000", "212847.786000", "212848.737000", "212849.741000", "212850.743000", "212851.709000", "212852.716000", "212853.716000", "212854.705000", "212855.754000", "212856.714000", "212857.717000", "212858.704000", "212859.716000", "212900.715000", "212901.703000", "212902.716000", "212903.754000", "212904.692000", "212905.697000", "212906.677000", "212907.710000", "212908.695000", "212909.711000", "212910.720000", "212911.722000", "212912.704000", "212913.721000", "212914.682000", "212915.713000", "212916.728000", "212917.726000", "212918.676000", "212919.738000", "212920.704000", "212921.726000", "212922.690000", "212923.714000", "212924.736000", "212925.701000", "212926.712000", "212927.696000", "212928.729000", "212929.676000", "212930.711000", "212931.723000", "212932.718000", "212933.704000", "212934.725000", "212935.695000", "212936.710000", "212937.715000", "212938.715000", "212939.724000", "212940.699000", "212941.721000", "212942.713000", "212943.721000", "212944.717000", "212945.723000", "212946.712000", "212947.679000", "212948.683000", "212949.704000", "212950.734000", "212951.678000", "212952.750000", "212953.725000", "212954.677000", "212955.728000", "212956.718000", "212957.751000", "212958.698000", "212959.741000", "213000.687000", "213001.758000", "213002.692000", "213003.692000", "213004.706000", "213005.688000", "213006.692000", "213007.713000", "213008.737000", "213009.725000", "213010.722000", "213011.703000", "213012.702000", "213013.704000", "213014.682000", "213015.689000", "213016.718000", "213017.716000", "213018.700000", "213019.711000", "213020.708000", "213021.708000", "213022.711000", "213023.728000", "213024.699000", "213025.699000", "213026.731000", "213027.720000", "213028.715000", "213029.699000", "213030.684000", "213031.710000", "213032.719000", "213033.706000", "213034.706000", "213035.706000", "213036.737000", "213037.702000", "213038.709000", "213039.722000", "213040.701000", "213041.691000", "213042.714000", "213043.689000", "213044.702000", "213045.718000", "213046.696000", "213047.694000", "213048.720000", "213049.703000", "213050.669000", "213051.720000", "213052.731000", "213053.703000", "213054.674000", "213055.687000", "213056.703000", "213057.727000", "213058.709000", "213059.703000", "213100.676000", "213101.710000", "213102.723000", "213103.711000", "213104.707000", "213105.725000", "213106.717000", "213107.692000", "213108.750000", "213109.716000", "213110.732000", "213111.682000", "213112.720000", "213113.732000", "213114.734000", "213115.710000", "213116.699000", "213117.709000", "213118.683000", "213119.760000", "213120.734000", "213121.709000", "213122.710000", "213123.722000", "213124.683000", "213125.703000", "213126.698000", "213127.702000", "213128.676000", "213129.714000", "213130.705000", "213131.726000", "213132.697000", "213133.710000", "213134.699000", "213135.693000", "213136.700000", "213137.693000", "213138.720000", "213139.715000", "213140.743000", "213141.753000", "213142.725000", "213143.735000", "213144.703000", "213145.712000", "213146.713000", "213147.714000", "213148.724000", "213149.724000", "213150.718000", "213151.698000", "213152.715000", "213153.707000", "213154.718000", "213155.710000", "213156.722000", "213157.708000", "213158.669000", "213159.703000", "213200.715000", "213201.702000", "213202.697000", "213203.694000", "213204.714000", "213205.693000", "213206.678000", "213207.713000", "213208.687000", "213209.668000", "213210.696000", "213211.688000", "213212.675000", "213213.695000", "213214.722000", "213215.712000", "213216.706000", "213217.690000", "213218.710000", "213219.694000", "213220.697000", "213221.719000", "213222.703000", "213223.748000", "213224.674000", "213225.711000", "213226.714000", "213227.714000", "213228.699000", "213229.668000", "213230.703000", "213231.698000", "213232.699000", "213233.705000", "213234.712000", "213235.693000", "213236.709000", "213237.697000", "213238.714000", "213239.697000", "213240.713000", "213241.715000", "213242.671000", "213243.707000", "213244.716000", "213245.708000", "213246.701000", "213247.707000", "213248.707000", "213249.741000", "213250.726000", "213251.714000", "213252.705000", "213253.720000", "213254.714000", "213255.707000", "213256.704000", "213257.710000", "213258.675000", "213259.705000", "213300.715000", "213301.713000", "213302.700000", "213303.699000", "213304.712000", "213305.699000", "213306.682000", "213307.722000", "213308.725000", "213309.698000", "213310.696000", "213311.718000", "213312.665000", "213313.690000", "213314.682000", "213315.694000", "213316.692000", "213317.707000", "213318.704000", "213319.671000", "213320.707000", "213321.693000", "213322.684000", "213323.700000", "213324.719000", "213325.676000", "213326.699000", "213327.714000", "213328.722000", "213329.707000", "213330.667000", "213331.701000", "213332.717000", "213333.684000", "213334.700000", "213335.707000", "213336.747000", "213337.707000", "213338.692000", "213339.736000", "213340.725000", "213341.736000", "213342.671000", "213343.681000", "213344.726000", "213345.748000", "213346.720000", "213347.678000", "213348.697000", "213349.721000", "213350.719000", "213351.679000", "213352.684000", "213353.695000", "213354.699000", "213355.678000", "213356.688000", "213357.777000", "213358.705000", "213359.710000", "213400.725000", "213401.684000", "213402.701000", "213403.710000", "213404.685000", "213405.706000", "213406.703000", "213407.693000", "213408.688000", "213409.693000", "213410.732000", "213411.710000", "213412.748000", "213413.740000", "213414.713000", "213415.692000", "213416.702000", "213417.693000", "213418.704000", "213419.712000", "213420.715000", "213421.696000", "213422.708000", "213423.711000", "213424.699000", "213425.730000", "213426.718000", "213427.700000", "213428.675000", "213429.693000", "213430.768000", "213431.726000"],
