{
  "AcquisitionMatrixPE": 96,
  "AcquisitionNumber": 1,
  "AcquisitionTime": "17:51:19.250000",
  "BaseResolution": 96,
  "BodyPartExamined": "BRAIN",
  "ConsistencyInfo": "N4_VE11C_LATEST_20160120",
  "ConversionSoftware": "dcm2niix",
  "ConversionSoftwareVersion": "v1.0.20190902",
  "DeviceSerialNumber": "66112",
  "DwellTime": 8.8e-06,
  "EchoNumber": 2,
  "EchoTime": 0.00738,
  "EchoTime1": 0.00492,
  "EchoTime2": 0.00738,
  "FlipAngle": 60,
  "ImageOrientationPatientDICOM": [
    0.999111,
    0.0399387,
    0.0135113,
    -0.0415258,
    0.987604,
    0.151377
  ],
  "ImageType": [
    "ORIGINAL",
    "PRIMARY",
    "P",
    "ND"
  ],
  "ImagingFrequency": 123.252,
  "InPlanePhaseEncodingDirectionDICOM": "COL",
  "InstitutionAddress": "Maynard_3_Hanover_NH_US_03755",
  "InstitutionName": "Dartmouth_College_-_PBS",
  "InstitutionalDepartmentName": "Department",
  "IntendedFor": [
    "func/sub-sid000005_task-movie_run-01_bold.nii.gz",
    "func/sub-sid000005_task-movie_run-02_bold.nii.gz",
    "func/sub-sid000005_task-movie_run-03_bold.nii.gz",
    "func/sub-sid000005_task-movie_run-04_bold.nii.gz",
    "func/sub-sid000005_task-movie_run-05_bold.nii.gz"
  ],
  "MRAcquisitionType": "2D",
  "MagneticFieldStrength": 3,
  "Manufacturer": "Siemens",
  "ManufacturersModelName": "Prisma",
  "Modality": "MR",
  "PartialFourier": 1,
  "PatientPosition": "HFS",
  "PercentPhaseFOV": 100,
  "PhaseEncodingDirection": "j-",
  "PhaseEncodingSteps": 96,
  "PhaseResolution": 1,
  "PixelBandwidth": 590,
  "ProcedureStepDescription": "Gobbini_Matteo_1037_budapest",
  "ProtocolName": "fmap_acq-2.5mm",
  "PulseSequenceDetails": "%SiemensSeq%_gre_field_mapping",
  "ReceiveCoilActiveElements": "HEA;HEP",
  "ReceiveCoilName": "Head_32",
  "ReconMatrixPE": 96,
  "RepetitionTime": 0.675,
  "SAR": 0.0945671,
  "ScanningSequence": "GR",
  "SequenceName": "_fm2d2r",
  "SequenceVariant": "SP",
  "SeriesDescription": "fmap_acq-2.5mm",
  "SeriesNumber": 7,
  "ShimSetting": [
    4132,
    -7721,
    -7294,
    540,
    -4,
    -215,
    22,
    77
  ],
  "SliceThickness": 2.5,
  "SliceTiming": [
    0.34375,
    0,
    0.35938,
    0.01562,
    0.375,
    0.03125,
    0.39062,
    0.04688,
    0.40625,
    0.0625,
    0.40625,
    0.07812,
    0.42188,
    0.09375,
    0.4375,
    0.10938,
    0.45312,
    0.125,
    0.46875,
    0.14062,
    0.48438,
    0.14062,
    0.5,
    0.15625,
    0.51562,
    0.17188,
    0.53125,
    0.1875,
    0.54688,
    0.20312,
    0.54688,
    0.21875,
    0.5625,
    0.23438,
    0.57812,
    0.25,
    0.59375,
    0.26562,
    0.60938,
    0.28125,
    0.625,
    0.28125,
    0.64062,
    0.29688,
    0.65625,
    0.3125,
    0.67188,
    0.32812
  ],
  "SoftwareVersions": "syngo_MR_E11",
  "SpacingBetweenSlices": 2.5,
  "StationName": "AWP66112",
  "TxRefAmp": 255.721,
  "dcmmeta_affine": [
    [
      -2.497776985168457,
      -0.10381443798542023,
      0.01824498176574707,
      127.28705596923828
    ],
    [
      -0.09984663873910904,
      2.4690089225769043,
      0.37950706481933594,
      -107.25617980957031
    ],
    [
      0.033778171986341476,
      -0.37844160199165344,
      2.470958709716797,
      -51.45212936401367
    ],
    [
      0.0,
      0.0,
      0.0,
      1.0
    ]
  ],
  "dcmmeta_reorient_transform": [
    [
      0.0,
      -1.0,
      0.0,
      95.0
    ],
    [
      1.0,
      0.0,
      0.0,
      0.0
    ],
    [
      0.0,
      0.0,
      -1.0,
      47.0
    ],
    [
      0.0,
      0.0,
      0.0,
      1.0
    ]
  ],
  "dcmmeta_shape": [
    96,
    96,
    48
  ],
  "dcmmeta_slice_dim": 2,
  "dcmmeta_version": 0.6,
  "global": {
    "const": {
      "AccessionNumber": "A001174",
      "AcquisitionMatrix": [
        96,
        0,
        0,
        96
      ],
      "AcquisitionNumber": 1,
      "AngioFlag": "N",
      "BitsAllocated": 16,
      "BitsStored": 12,
      "BodyPartExamined": "BRAIN",
      "Columns": 96,
      "EchoNumbers": 2,
      "EchoTime": 7.38,
      "EchoTrainLength": 0,
      "FlipAngle": 60.0,
      "HighBit": 11,
      "ImageOrientationPatient": [
        0.99911077931987,
        0.03993865632632,
        0.01351126854521,
        -0.0415257737724,
        0.98760352557341,
        0.15137663752239
      ],
      "ImageType": [
        "ORIGINAL",
        "PRIMARY",
        "P",
        "ND"
      ],
      "ImagedNucleus": "1H",
      "ImagingFrequency": 123.252296,
      "InPlanePhaseEncodingDirection": "COL",
      "MRAcquisitionType": "2D",
      "MagneticFieldStrength": 3.0,
      "Manufacturer": "SIEMENS",
      "ManufacturerModelName": "Prisma",
      "Modality": "MR",
      "NumberOfAverages": 1.0,
      "NumberOfPhaseEncodingSteps": 96,
      "PercentPhaseFieldOfView": 100.0,
      "PercentSampling": 100.0,
      "PerformedProcedureStepStartTime": "174426.543000",
      "PhotometricInterpretation": "MONOCHROME2",
      "PixelBandwidth": 590.0,
      "PixelRepresentation": 0,
      "PixelSpacing": [
        2.5,
        2.5
      ],
      "ProtocolName": "fmap_acq-2.5mm",
      "RepetitionTime": 675.0,
      "RescaleIntercept": -4096.0,
      "RescaleSlope": 2.0,
      "RescaleType": "US",
      "Rows": 96,
      "SAR": 0.09456711290213,
      "SamplesPerPixel": 1,
      "ScanningSequence": "GR",
      "SequenceName": "*fm2d2r",
      "SequenceVariant": "SP",
      "SeriesDescription": "fmap_acq-2.5mm",
      "SeriesNumber": 7,
      "SeriesTime": "175328.408000",
      "SliceThickness": 2.5,
      "SoftwareVersions": "syngo MR E11",
      "SpacingBetweenSlices": 2.5,
      "SpecificCharacterSet": "ISO_IR 100",
      "StudyID": "1",
      "StudyTime": "174426.481000",
      "TransmitCoilName": "Body",
      "VariableFlipAngleFlag": "N",
      "WindowCenterWidthExplanation": "Algo1",
      "dBdt": 0.0
    },
    "slices": {
      "AcquisitionTime": [
        "175119.250000",
        "175118.912500",
        "175119.265000",
        "175118.927500",
        "175119.277500",
        "175118.940000",
        "175119.292500",
        "175118.955000",
        "175119.305000",
        "175118.967500",
        "175119.320000",
        "175118.982500",
        "175119.335000",
        "175118.997500",
        "175119.347500",
        "175119.010000",
        "175119.362500",
        "175119.025000",
        "175119.375000",
        "175119.040000",
        "175119.390000",
        "175119.052500",
        "175119.405000",
        "175119.067500",
        "175119.417500",
        "175119.080000",
        "175119.432500",
        "175119.095000",
        "175119.447500",
        "175119.110000",
        "175119.460000",
        "175119.122500",
        "175119.475000",
        "175119.137500",
        "175119.487500",
        "175119.152500",
        "175119.502500",
        "175119.165000",
        "175119.517500",
        "175119.180000",
        "175119.530000",
        "175119.192500",
        "175119.545000",
        "175119.207500",
        "175119.560000",
        "175119.222500",
        "175119.572500",
        "175119.235000"
      ],
      "ContentTime": [
        "175328.459000",
        "175328.410000",
        "175328.461000",
        "175328.412000",
        "175328.463000",
        "175328.414000",
        "175328.465000",
        "175328.416000",
        "175328.467000",
        "175328.418000",
        "175328.469000",
        "175328.420000",
        "175328.471000",
        "175328.422000",
        "175328.473000",
        "175328.424000",
        "175328.475000",
        "175328.426000",
        "175328.477000",
        "175328.428000",
        "175328.479000",
        "175328.430000",
        "175328.481000",
        "175328.432000",
        "175328.483000",
        "175328.434000",
        "175328.485000",
        "175328.436000",
        "175328.487000",
        "175328.439000",
        "175328.489000",
        "175328.440000",
        "175328.491000",
        "175328.443000",
        "175328.498000",
        "175328.445000",
        "175328.500000",
        "175328.447000",
        "175328.502000",
        "175328.449000",
        "175328.504000",
        "175328.451000",
        "175328.506000",
        "175328.453000",
        "175328.508000",
        "175328.455000",
        "175328.510000",
        "175328.457000"
      ],
      "CsaImage.ICE_Dims": [
        "X_2_1_1_1_1_1_25_1_1_1_1_52",
        "X_2_1_1_1_1_1_1_1_1_2_1_52",
        "X_2_1_1_1_1_1_26_1_1_3_1_52",
        "X_2_1_1_1_1_1_2_1_1_4_1_52",
        "X_2_1_1_1_1_1_27_1_1_5_1_52",
        "X_2_1_1_1_1_1_3_1_1_6_1_52",
        "X_2_1_1_1_1_1_28_1_1_7_1_52",
        "X_2_1_1_1_1_1_4_1_1_8_1_52",
        "X_2_1_1_1_1_1_29_1_1_9_1_52",
        "X_2_1_1_1_1_1_5_1_1_10_1_52",
        "X_2_1_1_1_1_1_30_1_1_11_1_52",
        "X_2_1_1_1_1_1_6_1_1_12_1_52",
        "X_2_1_1_1_1_1_31_1_1_13_1_52",
        "X_2_1_1_1_1_1_7_1_1_14_1_52",
        "X_2_1_1_1_1_1_32_1_1_15_1_52",
        "X_2_1_1_1_1_1_8_1_1_16_1_52",
        "X_2_1_1_1_1_1_33_1_1_17_1_52",
        "X_2_1_1_1_1_1_9_1_1_18_1_52",
        "X_2_1_1_1_1_1_34_1_1_19_1_52",
        "X_2_1_1_1_1_1_10_1_1_20_1_52",
        "X_2_1_1_1_1_1_35_1_1_21_1_52",
        "X_2_1_1_1_1_1_11_1_1_22_1_52",
        "X_2_1_1_1_1_1_36_1_1_23_1_52",
        "X_2_1_1_1_1_1_12_1_1_24_1_52",
        "X_2_1_1_1_1_1_37_1_1_25_1_52",
        "X_2_1_1_1_1_1_13_1_1_26_1_52",
        "X_2_1_1_1_1_1_38_1_1_27_1_52",
        "X_2_1_1_1_1_1_14_1_1_28_1_52",
        "X_2_1_1_1_1_1_39_1_1_29_1_52",
        "X_2_1_1_1_1_1_15_1_1_30_1_52",
        "X_2_1_1_1_1_1_40_1_1_31_1_52",
        "X_2_1_1_1_1_1_16_1_1_32_1_52",
        "X_2_1_1_1_1_1_41_1_1_33_1_52",
        "X_2_1_1_1_1_1_17_1_1_34_1_52",
        "X_2_1_1_1_1_1_42_1_1_35_1_52",
        "X_2_1_1_1_1_1_18_1_1_36_1_52",
        "X_2_1_1_1_1_1_43_1_1_37_1_52",
        "X_2_1_1_1_1_1_19_1_1_38_1_52",
        "X_2_1_1_1_1_1_44_1_1_39_1_52",
        "X_2_1_1_1_1_1_20_1_1_40_1_52",
        "X_2_1_1_1_1_1_45_1_1_41_1_52",
        "X_2_1_1_1_1_1_21_1_1_42_1_52",
        "X_2_1_1_1_1_1_46_1_1_43_1_52",
        "X_2_1_1_1_1_1_22_1_1_44_1_52",
        "X_2_1_1_1_1_1_47_1_1_45_1_52",
        "X_2_1_1_1_1_1_23_1_1_46_1_52",
        "X_2_1_1_1_1_1_48_1_1_47_1_52",
        "X_2_1_1_1_1_1_24_1_1_48_1_52"
      ],
      "CsaImage.ProtocolSliceNumber": [
        0,
        1,
        2,
        3,
        4,
        5,
        6,
        7,
        8,
        9,
        10,
        11,
        12,
        13,
        14,
        15,
        16,
        17,
        18,
        19,
        20,
        21,
        22,
        23,
        24,
        25,
        26,
        27,
        28,
        29,
        30,
        31,
        32,
        33,
        34,
        35,
        36,
        37,
        38,
        39,
        40,
        41,
        42,
        43,
        44,
        45,
        46,
        47
      ],
      "CsaImage.SlicePosition_PCS": [
        [
          -117.42468102,
          -127.29962231,
          -87.4041177
        ],
        [
          -117.442926,
          -127.67913009,
          -84.93315517
        ],
        [
          -117.46117098,
          -128.05863763,
          -82.46219646
        ],
        [
          -117.47941596,
          -128.43814565,
          -79.99123775
        ],
        [
          -117.49766095,
          -128.81765319,
          -77.52027904
        ],
        [
          -117.51590593,
          -129.19716121,
          -75.04932033
        ],
        [
          -117.53415091,
          -129.57666875,
          -72.57835781
        ],
        [
          -117.55239589,
          -129.95617677,
          -70.1073991
        ],
        [
          -117.57064087,
          -130.33568431,
          -67.63644039
        ],
        [
          -117.58888585,
          -130.71519233,
          -65.16548168
        ],
        [
          -117.60713084,
          -131.09469987,
          -62.69451916
        ],
        [
          -117.62537582,
          -131.47420741,
          -60.22356045
        ],
        [
          -117.6436208,
          -131.85371543,
          -57.75260174
        ],
        [
          -117.66186578,
          -132.23322345,
          -55.28164303
        ],
        [
          -117.68011076,
          -132.61273051,
          -52.81068432
        ],
        [
          -117.69835574,
          -132.99223853,
          -50.3397237
        ],
        [
          -117.71660073,
          -133.37174655,
          -47.86876308
        ],
        [
          -117.73484571,
          -133.75125457,
          -45.39780437
        ],
        [
          -117.75309069,
          -134.13076163,
          -42.92684566
        ],
        [
          -117.77133567,
          -134.51026965,
          -40.45588505
        ],
        [
          -117.78958065,
          -134.88977767,
          -37.98492634
        ],
        [
          -117.80782564,
          -135.26928474,
          -35.51396572
        ],
        [
          -117.82607062,
          -135.64879275,
          -33.04300701
        ],
        [
          -117.8443156,
          -136.02830077,
          -30.57204735
        ],
        [
          -117.86256058,
          -136.40780879,
          -28.10108768
        ],
        [
          -117.88080556,
          -136.78731586,
          -25.63012802
        ],
        [
          -117.89905054,
          -137.16682387,
          -23.1591686
        ],
        [
          -117.91729553,
          -137.54633189,
          -20.68820899
        ],
        [
          -117.93554051,
          -137.92583991,
          -18.21724951
        ],
        [
          -117.95378549,
          -138.30534698,
          -15.74628984
        ],
        [
          -117.97203047,
          -138.684855,
          -13.27533018
        ],
        [
          -117.99027545,
          -139.06436301,
          -10.80437099
        ],
        [
          -118.00852043,
          -139.44387103,
          -8.33341133
        ],
        [
          -118.02676542,
          -139.8233781,
          -5.86245167
        ],
        [
          -118.0450104,
          -140.20288516,
          -3.39149296
        ],
        [
          -118.06325538,
          -140.58239413,
          -0.92053234
        ],
        [
          -118.08150036,
          -140.9619012,
          1.55042637
        ],
        [
          -118.09974534,
          -141.34141017,
          4.02138699
        ],
        [
          -118.11799033,
          -141.72091724,
          6.4923457
        ],
        [
          -118.13623555,
          -142.1004243,
          8.96330441
        ],
        [
          -118.15448053,
          -142.47993327,
          11.43426502
        ],
        [
          -118.17272551,
          -142.85944034,
          13.90522373
        ],
        [
          -118.19097049,
          -143.2389474,
          16.37618244
        ],
        [
          -118.20921547,
          -143.61845637,
          18.84714497
        ],
        [
          -118.22746045,
          -143.99796344,
          21.31810368
        ],
        [
          -118.24570544,
          -144.3774705,
          23.78906239
        ],
        [
          -118.26395042,
          -144.75697948,
          26.2600211
        ],
        [
          -118.2821954,
          -145.13648654,
          28.73097981
        ]
      ],
      "CsaImage.TimeAfterStart": [
        1.015,
        0.6775,
        1.03,
        0.6925,
        1.0425,
        0.705,
        1.0575,
        0.72,
        1.07,
        0.7325,
        1.085,
        0.7475,
        1.1,
        0.7625,
        1.1125,
        0.775,
        1.1275,
        0.79,
        1.14,
        0.805,
        1.155,
        0.8175,
        1.17,
        0.8325,
        1.1825,
        0.845,
        1.1975,
        0.86,
        1.2125,
        0.875,
        1.225,
        0.8875,
        1.24,
        0.9025,
        1.2525,
        0.9175,
        1.2675,
        0.93,
        1.2825,
        0.945,
        1.295,
        0.9575,
        1.31,
        0.9725,
        1.325,
        0.9875,
        1.3375,
        1.0
      ],
      "ImagePositionPatient": [
        [
          -117.4246810181,
          -127.29962230809,
          -87.404117697839
        ],
        [
          -117.44292599987,
          -127.67913008816,
          -84.933155173425
        ],
        [
          -117.46117098163,
          -128.05863762982,
          -82.462196463708
        ],
        [
          -117.4794159634,
          -128.43814564831,
          -79.991237753991
        ],
        [
          -117.49766094516,
          -128.81765318997,
          -77.520279044274
        ],
        [
          -117.51590592693,
          -129.19716120846,
          -75.049320334558
        ],
        [
          -117.5341509087,
          -129.57666875012,
          -72.578357810144
        ],
        [
          -117.55239589046,
          -129.95617676861,
          -70.107399100427
        ],
        [
          -117.57064087223,
          -130.33568431027,
          -67.63644039071
        ],
        [
          -117.58888585399,
          -130.71519232876,
          -65.165481680993
        ],
        [
          -117.60713083576,
          -131.09469987042,
          -62.694519156579
        ],
        [
          -117.62537581752,
          -131.47420741207,
          -60.223560446862
        ],
        [
          -117.64362079929,
          -131.85371543057,
          -57.752601737146
        ],
        [
          -117.66186578106,
          -132.23322344906,
          -55.281643027429
        ],
        [
          -117.68011076282,
          -132.61273051388,
          -52.810684317712
        ],
        [
          -117.69835574459,
          -132.99223853237,
          -50.339723700647
        ],
        [
          -117.71660072635,
          -133.37174655087,
          -47.868763083581
        ],
        [
          -117.73484570812,
          -133.75125456936,
          -45.397804373864
        ],
        [
          -117.75309068988,
          -134.13076163418,
          -42.926845664148
        ],
        [
          -117.77133567165,
          -134.51026965267,
          -40.455885047082
        ],
        [
          -117.78958065342,
          -134.88977767117,
          -37.984926337365
        ],
        [
          -117.80782563518,
          -135.26928473599,
          -35.5139657203
        ],
        [
          -117.82607061695,
          -135.64879275448,
          -33.043007010583
        ],
        [
          -117.84431559871,
          -136.02830077298,
          -30.572047347192
        ],
        [
          -117.86256058048,
          -136.40780879147,
          -28.101087683801
        ],
        [
          -117.88080556224,
          -136.78731585629,
          -25.63012802041
        ],
        [
          -117.89905054401,
          -137.16682387478,
          -23.159168595437
        ],
        [
          -117.91729552578,
          -137.54633189328,
          -20.688208991651
        ],
        [
          -117.93554050754,
          -137.92583991177,
          -18.217249507074
        ],
        [
          -117.95378548931,
          -138.30534697659,
          -15.746289843682
        ],
        [
          -117.97203047107,
          -138.68485499508,
          -13.275330180291
        ],
        [
          -117.99027545284,
          -139.06436301358,
          -10.804370993737
        ],
        [
          -118.00852043461,
          -139.44387103207,
          -8.3334113303462
        ],
        [
          -118.02676541637,
          -139.82337809689,
          -5.8624516669551
        ],
        [
          -118.04501039814,
          -140.20288516171,
          -3.3914929572383
        ],
        [
          -118.0632553799,
          -140.58239413388,
          -0.9205323401729
        ],
        [
          -118.08150036167,
          -140.9619011987,
          1.5504263695439
        ],
        [
          -118.09974534343,
          -141.34141017086,
          4.0213869866093
        ],
        [
          -118.1179903252,
          -141.72091723568,
          6.4923456963261
        ],
        [
          -118.13623554538,
          -142.1004243005,
          8.9633044060429
        ],
        [
          -118.15448052715,
          -142.47993327267,
          11.434265023108
        ],
        [
          -118.17272550892,
          -142.85944033749,
          13.905223732825
        ],
        [
          -118.19097049068,
          -143.23894740231,
          16.376182442542
        ],
        [
          -118.20921547245,
          -143.61845637448,
          18.847144966956
        ],
        [
          -118.22746045421,
          -143.9979634393,
          21.318103676673
        ],
        [
          -118.24570543598,
          -144.37747050412,
          23.78906238639
        ],
        [
          -118.26395041774,
          -144.75697947628,
          26.260021096106
        ],
        [
          -118.28219539951,
          -145.1364865411,
          28.730979805823
        ]
      ],
      "InstanceCreationTime": [
        "175328.459000",
        "175328.410000",
        "175328.461000",
        "175328.412000",
        "175328.463000",
        "175328.414000",
        "175328.465000",
        "175328.416000",
        "175328.467000",
        "175328.418000",
        "175328.469000",
        "175328.420000",
        "175328.471000",
        "175328.422000",
        "175328.473000",
        "175328.424000",
        "175328.475000",
        "175328.426000",
        "175328.477000",
        "175328.428000",
        "175328.479000",
        "175328.430000",
        "175328.481000",
        "175328.432000",
        "175328.483000",
        "175328.434000",
        "175328.485000",
        "175328.436000",
        "175328.487000",
        "175328.439000",
        "175328.489000",
        "175328.440000",
        "175328.491000",
        "175328.443000",
        "175328.498000",
        "175328.445000",
        "175328.500000",
        "175328.447000",
        "175328.502000",
        "175328.449000",
        "175328.504000",
        "175328.451000",
        "175328.506000",
        "175328.453000",
        "175328.508000",
        "175328.455000",
        "175328.510000",
        "175328.457000"
      ],
      "InstanceNumber": [
        1,
        2,
        3,
        4,
        5,
        6,
        7,
        8,
        9,
        10,
        11,
        12,
        13,
        14,
        15,
        16,
        17,
        18,
        19,
        20,
        21,
        22,
        23,
        24,
        25,
        26,
        27,
        28,
        29,
        30,
        31,
        32,
        33,
        34,
        35,
        36,
        37,
        38,
        39,
        40,
        41,
        42,
        43,
        44,
        45,
        46,
        47,
        48
      ],
      "LargestImagePixelValue": [
        4092,
        4094,
        4094,
        4095,
        4095,
        4094,
        4095,
        4093,
        4095,
        4093,
        4094,
        4090,
        4092,
        4095,
        4094,
        4088,
        4094,
        4094,
        4093,
        4088,
        4093,
        4094,
        4094,
        4087,
        4094,
        4089,
        4092,
        4088,
        4094,
        4095,
        4083,
        4095,
        4090,
        4091,
        4092,
        4094,
        4095,
        4093,
        4094,
        4093,
        4095,
        4093,
        4094,
        4095,
        4093,
        4095,
        4094,
        4094
      ],
      "SliceLocation": [
        -66.20737323768,
        -63.707370271371,
        -61.207371111639,
        -58.707371879522,
        -56.20737271979,
        -53.707373487673,
        -51.207370557557,
        -48.707371325439,
        -46.207372165708,
        -43.707372933591,
        -41.207370003474,
        -38.707370843742,
        -36.207371611625,
        -33.707372379508,
        -31.207373292162,
        -28.707372174852,
        -26.207371057543,
        -23.707371825426,
        -21.20737273808,
        -18.70737162077,
        -16.207372388653,
        -13.707371416114,
        -11.207372183997,
        -8.7073720092839,
        -6.2073718345706,
        -3.707371804628,
        -1.2073718655638,
        1.2926282502372,
        3.7926282482137,
        6.2926282781563,
        8.7926284528696,
        11.292628156285,
        13.792628330998,
        16.292628360941,
        18.792627448287,
        21.292628710367,
        23.792627797714,
        26.292629059794,
        28.79262814714,
        31.292627236226,
        33.792628498307,
        36.292627585653,
        38.792626672999,
        41.292629820272,
        43.792628907618,
        46.292627994965,
        48.792627371852,
        51.292626459199
      ],
      "SmallestImagePixelValue": [
        0,
        0,
        0,
        0,
        0,
        0,
        3,
        0,
        0,
        0,
        0,
        0,
        0,
        1,
        2,
        2,
        4,
        7,
        0,
        23,
        1,
        4,
        0,
        3,
        1,
        1,
        1,
        0,
        0,
        4,
        0,
        0,
        6,
        0,
        3,
        1,
        0,
        0,
        0,
        0,
        1,
        0,
        0,
        0,
        0,
        3,
        1,
        0
      ],
      "WindowCenter": [
        -124.0,
        -200.0,
        -150.0,
        -178.0,
        -166.0,
        -174.0,
        -256.0,
        -270.0,
        -352.0,
        -238.0,
        -322.0,
        -294.0,
        -310.0,
        -314.0,
        -288.0,
        -294.0,
        -286.0,
        -288.0,
        -316.0,
        -266.0,
        -202.0,
        -152.0,
        -118.0,
        -74.0,
        -86.0,
        -72.0,
        -204.0,
        -82.0,
        -60.0,
        -184.0,
        -210.0,
        -84.0,
        -218.0,
        -218.0,
        -230.0,
        -210.0,
        -262.0,
        -256.0,
        -302.0,
        -302.0,
        -354.0,
        -378.0,
        -292.0,
        -250.0,
        -240.0,
        -216.0,
        -206.0,
        -234.0
      ],
      "WindowWidth": [
        6106.0,
        6040.0,
        6048.0,
        6074.0,
        6144.0,
        6246.0,
        6238.0,
        6184.0,
        6110.0,
        6076.0,
        5940.0,
        5906.0,
        5628.0,
        5534.0,
        5612.0,
        5336.0,
        5466.0,
        5608.0,
        5550.0,
        5606.0,
        5590.0,
        5562.0,
        5448.0,
        5420.0,
        5200.0,
        5198.0,
        4566.0,
        5016.0,
        5160.0,
        4558.0,
        4576.0,
        5182.0,
        4572.0,
        4582.0,
        4596.0,
        4582.0,
        4616.0,
        4622.0,
        4648.0,
        4676.0,
        4730.0,
        4780.0,
        5142.0,
        5546.0,
        5690.0,
        5834.0,
        5952.0,
        6058.0
      ]
    }
  }
}