{
  "AcquisitionMatrixPE": 96,
  "AcquisitionNumber": 1,
  "AcquisitionTime": "16:39:35.722500",
  "BandwidthPerPixelPhaseEncode": 18.939,
  "BaseResolution": 96,
  "BodyPartExamined": "BRAIN",
  "ConsistencyInfo": "N4_VE11C_LATEST_20160120",
  "ConversionSoftware": "dcm2niix",
  "ConversionSoftwareVersion": "v1.0.20190902",
  "DerivedVendorReportedEchoSpacing": 0.000550011,
  "DeviceSerialNumber": "66112",
  "DwellTime": 2.2e-06,
  "EchoTime": 0.033,
  "EchoTrainLength": 96,
  "EffectiveEchoSpacing": 0.000550011,
  "FlipAngle": 59,
  "ImageOrientationPatientDICOM": [0.999573, -0.0155292, 0.0247489, 0.0141321, 0.99835, 0.0556609],
  "ImageType": [
    "ORIGINAL",
    "PRIMARY",
    "FMRI",
    "NONE",
    "ND",
    "NORM",
    "MOSAIC"
],
  "ImagingFrequency": 123.252,
  "InPlanePhaseEncodingDirectionDICOM": "COL",
  "InstitutionAddress": "Maynard_3_Hanover_NH_US_03755",
  "InstitutionName": "Dartmouth_College_-_PBS",
  "InstitutionalDepartmentName": "Department",
  "MRAcquisitionType": "2D",
  "MagneticFieldStrength": 3,
  "Manufacturer": "Siemens",
  "ManufacturersModelName": "Prisma",
  "Modality": "MR",
  "MultibandAccelerationFactor": 4,
  "PartialFourier": 1,
  "PatientPosition": "HFS",
  "PercentPhaseFOV": 100,
  "PhaseEncodingDirection": "j-",
  "PhaseEncodingSteps": 96,
  "PhaseResolution": 1,
  "PixelBandwidth": 2365,
  "ProcedureStepDescription": "Gobbini_Matteo_1037_budapest",
  "ProtocolName": "func_run-01_task-movie",
  "PulseSequenceDetails": "%SiemensSeq%_ep2d_bold",
  "ReceiveCoilActiveElements": "HEA;HEP",
  "ReceiveCoilName": "Head_32",
  "ReconMatrixPE": 96,
  "RefLinesPE": 12,
  "RepetitionTime": 1,
  "SAR": 0.0540708,
  "ScanOptions": "FS",
  "ScanningSequence": "EP",
  "SequenceName": "_epfid2d1_96",
  "SequenceVariant": "SK",
  "SeriesDescription": "func_run-01_task-movie",
  "SeriesNumber": 8,
  "ShimSetting": [4155, -7705, -7283, 789, -54, -50, 20, 56],
  "SliceThickness": 2.5,
  "SliceTiming": [0.735, 0, 0.49, 0.0825, 0.57, 0.1625, 0.6525, 0.3275, 0.815, 0.4075, 0.8975, 0.245, 0.735, 0, 0.49, 0.0825, 0.57, 0.1625, 0.6525, 0.3275, 0.815, 0.4075, 0.8975, 0.245, 0.735, 0, 0.49, 0.0825, 0.57, 0.1625, 0.6525, 0.3275, 0.815, 0.4075, 0.8975, 0.245, 0.735, 0, 0.49, 0.0825, 0.57, 0.1625, 0.6525, 0.3275, 0.815, 0.4075, 0.8975, 0.245],
  "SoftwareVersions": "syngo_MR_E11",
  "SpacingBetweenSlices": 2.5,
  "StationName": "AWP66112",
  "TaskName": "movie",
  "TotalReadoutTime": 0.0522511,
  "TxRefAmp": 238.967,
  "dcmmeta_affine": [
    [-2.4989326000213623, 0.03533024340867996, 0.06393110007047653, 117.18696594238281],
    [0.038823097944259644, 2.4958741664886475, 0.1382184773683548, -114.12889099121094],
    [0.06187228485941887, -0.13915227353572845, 2.4953572750091553, -69.58058166503906],
    [0.0, 0.0, 0.0, 1.0]
],
  "dcmmeta_reorient_transform": [
    [0.0, -1.0, 0.0, 95.0],
    [1.0, 0.0, 0.0, 0.0],
    [0.0, 0.0, 1.0, 0.0],
    [0.0, 0.0, 0.0, 1.0]
],
  "dcmmeta_shape": [96, 96, 48, 598],
  "dcmmeta_slice_dim": 2,
  "dcmmeta_version": 0.6,
  "global": {
    "const": {
      "AccessionNumber": "A001420",
      "AcquisitionMatrix": [96, 0, 0, 96],
      "AngioFlag": "N",
      "BitsAllocated": 16,
      "BitsStored": 12,
      "BodyPartExamined": "BRAIN",
      "Columns": 672,
      "EchoNumbers": 1,
      "EchoTime": 33.0,
      "EchoTrainLength": 96,
      "FlipAngle": 59.0,
      "HighBit": 11,
      "ImageOrientationPatient": [0.99957307588882, -0.015529238585, 0.02474891325154, 0.01413209721874, 0.9983497118548, 0.05566090789442],
      "ImagePositionPatient": [-850.41106174088, -830.6099037043, -140.69512103946],
      "ImageType": [
        "ORIGINAL",
        "PRIMARY",
        "FMRI",
        "NONE",
        "ND",
        "NORM",
        "MOSAIC"
],
      "ImagedNucleus": "1H",
      "ImagingFrequency": 123.252305,
      "InPlanePhaseEncodingDirection": "COL",
      "MRAcquisitionType": "2D",
      "MagneticFieldStrength": 3.0,
      "Manufacturer": "SIEMENS",
      "ManufacturerModelName": "Prisma",
      "Modality": "MR",
      "NumberOfAverages": 1.0,
      "NumberOfPhaseEncodingSteps": 96,
      "PercentPhaseFieldOfView": 100.0,
      "PercentSampling": 100.0,
      "PerformedProcedureStepStartTime": "162943.038000",
      "PhotometricInterpretation": "MONOCHROME2",
      "PixelBandwidth": 2365.0,
      "PixelRepresentation": 0,
      "PixelSpacing": [2.5, 2.5],
      "ProtocolName": "func_run-01_task-movie",
      "RepetitionTime": 1000.0,
      "Rows": 672,
      "SAR": 0.0540708484539,
      "SamplesPerPixel": 1,
      "ScanOptions": "FS",
      "ScanningSequence": "EP",
      "SequenceName": "*epfid2d1_96",
      "SequenceVariant": "SK",
      "SeriesDescription": "func_run-01_task-movie",
      "SeriesNumber": 8,
      "SeriesTime": "163937.159000",
      "SliceLocation": -72.764501691989,
      "SliceThickness": 2.5,
      "SmallestImagePixelValue": 0,
      "SoftwareVersions": "syngo MR E11",
      "SpacingBetweenSlices": 2.4999998879623,
      "SpecificCharacterSet": "ISO_IR 100",
      "StudyID": "1",
      "StudyTime": "162942.921000",
      "TransmitCoilName": "Body",
      "VariableFlipAngleFlag": "N",
      "WindowCenterWidthExplanation": "Algo1",
      "dBdt": 0.0},
    "slices": {}
  },
  "time": {
    "samples": {
      "AcquisitionNumber": [1, 2, 3, 4, 5, 6, 7, 8, 9, 10, 11, 12, 13, 14, 15, 16, 17, 18, 19, 20, 21, 22, 23, 24, 25, 26, 27, 28, 29, 30, 31, 32, 33, 34, 35, 36, 37, 38, 39, 40, 41, 42, 43, 44, 45, 46, 47, 48, 49, 50, 51, 52, 53, 54, 55, 56, 57, 58, 59, 60, 61, 62, 63, 64, 65, 66, 67, 68, 69, 70, 71, 72, 73, 74, 75, 76, 77, 78, 79, 80, 81, 82, 83, 84, 85, 86, 87, 88, 89, 90, 91, 92, 93, 94, 95, 96, 97, 98, 99, 100, 101, 102, 103, 104, 105, 106, 107, 108, 109, 110, 111, 112, 113, 114, 115, 116, 117, 118, 119, 120, 121, 122, 123, 124, 125, 126, 127, 128, 129, 130, 131, 132, 133, 134, 135, 136, 137, 138, 139, 140, 141, 142, 143, 144, 145, 146, 147, 148, 149, 150, 151, 152, 153, 154, 155, 156, 157, 158, 159, 160, 161, 162, 163, 164, 165, 166, 167, 168, 169, 170, 171, 172, 173, 174, 175, 176, 177, 178, 179, 180, 181, 182, 183, 184, 185, 186, 187, 188, 189, 190, 191, 192, 193, 194, 195, 196, 197, 198, 199, 200, 201, 202, 203, 204, 205, 206, 207, 208, 209, 210, 211, 212, 213, 214, 215, 216, 217, 218, 219, 220, 221, 222, 223, 224, 225, 226, 227, 228, 229, 230, 231, 232, 233, 234, 235, 236, 237, 238, 239, 240, 241, 242, 243, 244, 245, 246, 247, 248, 249, 250, 251, 252, 253, 254, 255, 256, 257, 258, 259, 260, 261, 262, 263, 264, 265, 266, 267, 268, 269, 270, 271, 272, 273, 274, 275, 276, 277, 278, 279, 280, 281, 282, 283, 284, 285, 286, 287, 288, 289, 290, 291, 292, 293, 294, 295, 296, 297, 298, 299, 300, 301, 302, 303, 304, 305, 306, 307, 308, 309, 310, 311, 312, 313, 314, 315, 316, 317, 318, 319, 320, 321, 322, 323, 324, 325, 326, 327, 328, 329, 330, 331, 332, 333, 334, 335, 336, 337, 338, 339, 340, 341, 342, 343, 344, 345, 346, 347, 348, 349, 350, 351, 352, 353, 354, 355, 356, 357, 358, 359, 360, 361, 362, 363, 364, 365, 366, 367, 368, 369, 370, 371, 372, 373, 374, 375, 376, 377, 378, 379, 380, 381, 382, 383, 384, 385, 386, 387, 388, 389, 390, 391, 392, 393, 394, 395, 396, 397, 398, 399, 400, 401, 402, 403, 404, 405, 406, 407, 408, 409, 410, 411, 412, 413, 414, 415, 416, 417, 418, 419, 420, 421, 422, 423, 424, 425, 426, 427, 428, 429, 430, 431, 432, 433, 434, 435, 436, 437, 438, 439, 440, 441, 442, 443, 444, 445, 446, 447, 448, 449, 450, 451, 452, 453, 454, 455, 456, 457, 458, 459, 460, 461, 462, 463, 464, 465, 466, 467, 468, 469, 470, 471, 472, 473, 474, 475, 476, 477, 478, 479, 480, 481, 482, 483, 484, 485, 486, 487, 488, 489, 490, 491, 492, 493, 494, 495, 496, 497, 498, 499, 500, 501, 502, 503, 504, 505, 506, 507, 508, 509, 510, 511, 512, 513, 514, 515, 516, 517, 518, 519, 520, 521, 522, 523, 524, 525, 526, 527, 528, 529, 530, 531, 532, 533, 534, 535, 536, 537, 538, 539, 540, 541, 542, 543, 544, 545, 546, 547, 548, 549, 550, 551, 552, 553, 554, 555, 556, 557, 558, 559, 560, 561, 562, 563, 564, 565, 566, 567, 568, 569, 570, 571, 572, 573, 574, 575, 576, 577, 578, 579, 580, 581, 582, 583, 584, 585, 586, 587, 588, 589, 590, 591, 592, 593, 594, 595, 596, 597, 598],
      "AcquisitionTime": ["163935.722500", "163936.722500", "163937.722500", "163938.722500", "163939.722500", "163940.722500", "163941.722500", "163942.722500", "163943.722500", "163944.722500", "163945.722500", "163946.722500", "163947.722500", "163948.722500", "163949.722500", "163950.722500", "163951.722500", "163952.722500", "163953.722500", "163954.722500", "163955.722500", "163956.722500", "163957.722500", "163958.722500", "163959.722500", "164000.722500", "164001.722500", "164002.722500", "164003.722500", "164004.722500", "164005.722500", "164006.722500", "164007.722500", "164008.722500", "164009.722500", "164010.722500", "164011.722500", "164012.722500", "164013.722500", "164014.722500", "164015.722500", "164016.722500", "164017.722500", "164018.722500", "164019.722500", "164020.722500", "164021.722500", "164022.722500", "164023.722500", "164024.722500", "164025.722500", "164026.722500", "164027.722500", "164028.722500", "164029.722500", "164030.722500", "164031.722500", "164032.722500", "164033.722500", "164034.722500", "164035.722500", "164036.722500", "164037.722500", "164038.722500", "164039.722500", "164040.722500", "164041.722500", "164042.722500", "164043.722500", "164044.722500", "164045.722500", "164046.722500", "164047.722500", "164048.722500", "164049.722500", "164050.722500", "164051.722500", "164052.722500", "164053.722500", "164054.722500", "164055.722500", "164056.722500", "164057.722500", "164058.722500", "164059.722500", "164100.722500", "164101.722500", "164102.722500", "164103.722500", "164104.722500", "164105.722500", "164106.722500", "164107.722500", "164108.722500", "164109.722500", "164110.722500", "164111.722500", "164112.722500", "164113.722500", "164114.722500", "164115.722500", "164116.722500", "164117.722500", "164118.722500", "164119.722500", "164120.722500", "164121.722500", "164122.722500", "164123.722500", "164124.722500", "164125.722500", "164126.722500", "164127.722500", "164128.722500", "164129.722500", "164130.722500", "164131.722500", "164132.722500", "164133.722500", "164134.722500", "164135.722500", "164136.722500", "164137.722500", "164138.722500", "164139.722500", "164140.722500", "164141.722500", "164142.722500", "164143.722500", "164144.722500", "164145.722500", "164146.722500", "164147.722500", "164148.722500", "164149.722500", "164150.722500", "164151.722500", "164152.722500", "164153.722500", "164154.722500", "164155.722500", "164156.722500", "164157.722500", "164158.722500", "164159.722500", "164200.722500", "164201.722500", "164202.722500", "164203.722500", "164204.722500", "164205.722500", "164206.722500", "164207.722500", "164208.722500", "164209.722500", "164210.722500", "164211.722500", "164212.722500", "164213.722500", "164214.722500", "164215.722500", "164216.722500", "164217.722500", "164218.722500", "164219.722500", "164220.722500", "164221.722500", "164222.722500", "164223.722500", "164224.722500", "164225.722500", "164226.722500", "164227.722500", "164228.722500", "164229.722500", "164230.722500", "164231.722500", "164232.722500", "164233.722500", "164234.722500", "164235.722500", "164236.722500", "164237.722500", "164238.722500", "164239.722500", "164240.722500", "164241.722500", "164242.722500", "164243.722500", "164244.722500", "164245.722500", "164246.722500", "164247.722500", "164248.722500", "164249.722500", "164250.722500", "164251.722500", "164252.722500", "164253.722500", "164254.722500", "164255.722500", "164256.722500", "164257.722500", "164258.722500", "164259.722500", "164300.722500", "164301.722500", "164302.722500", "164303.722500", "164304.722500", "164305.722500", "164306.722500", "164307.722500", "164308.722500", "164309.722500", "164310.722500", "164311.722500", "164312.722500", "164313.722500", "164314.722500", "164315.722500", "164316.722500", "164317.722500", "164318.722500", "164319.722500", "164320.722500", "164321.722500", "164322.722500", "164323.722500", "164324.722500", "164325.722500", "164326.722500", "164327.722500", "164328.722500", "164329.722500", "164330.722500", "164331.722500", "164332.722500", "164333.722500", "164334.722500", "164335.722500", "164336.722500", "164337.722500", "164338.722500", "164339.722500", "164340.722500", "164341.722500", "164342.722500", "164343.722500", "164344.722500", "164345.722500", "164346.722500", "164347.722500", "164348.722500", "164349.722500", "164350.722500", "164351.722500", "164352.722500", "164353.722500", "164354.722500", "164355.722500", "164356.722500", "164357.722500", "164358.722500", "164359.722500", "164400.722500", "164401.722500", "164402.722500", "164403.722500", "164404.722500", "164405.722500", "164406.722500", "164407.722500", "164408.722500", "164409.722500", "164410.722500", "164411.722500", "164412.722500", "164413.722500", "164414.722500", "164415.722500", "164416.722500", "164417.722500", "164418.722500", "164419.722500", "164420.722500", "164421.722500", "164422.722500", "164423.722500", "164424.722500", "164425.722500", "164426.722500", "164427.722500", "164428.722500", "164429.722500", "164430.722500", "164431.722500", "164432.722500", "164433.722500", "164434.722500", "164435.722500", "164436.722500", "164437.722500", "164438.722500", "164439.722500", "164440.722500", "164441.722500", "164442.722500", "164443.722500", "164444.722500", "164445.722500", "164446.722500", "164447.722500", "164448.722500", "164449.722500", "164450.722500", "164451.722500", "164452.722500", "164453.722500", "164454.722500", "164455.722500", "164456.722500", "164457.722500", "164458.722500", "164459.722500", "164500.722500", "164501.722500", "164502.722500", "164503.722500", "164504.722500", "164505.722500", "164506.722500", "164507.722500", "164508.722500", "164509.722500", "164510.722500", "164511.722500", "164512.722500", "164513.722500", "164514.722500", "164515.722500", "164516.722500", "164517.722500", "164518.722500", "164519.722500", "164520.722500", "164521.722500", "164522.722500", "164523.722500", "164524.722500", "164525.722500", "164526.722500", "164527.722500", "164528.722500", "164529.722500", "164530.722500", "164531.722500", "164532.722500", "164533.722500", "164534.722500", "164535.722500", "164536.722500", "164537.722500", "164538.722500", "164539.722500", "164540.722500", "164541.722500", "164542.722500", "164543.722500", "164544.722500", "164545.722500", "164546.722500", "164547.722500", "164548.722500", "164549.722500", "164550.722500", "164551.722500", "164552.722500", "164553.722500", "164554.722500", "164555.722500", "164556.722500", "164557.722500", "164558.722500", "164559.722500", "164600.722500", "164601.722500", "164602.722500", "164603.722500", "164604.722500", "164605.722500", "164606.722500", "164607.722500", "164608.722500", "164609.722500", "164610.722500", "164611.722500", "164612.722500", "164613.722500", "164614.722500", "164615.722500", "164616.722500", "164617.722500", "164618.722500", "164619.722500", "164620.722500", "164621.722500", "164622.722500", "164623.722500", "164624.722500", "164625.722500", "164626.722500", "164627.722500", "164628.722500", "164629.722500", "164630.722500", "164631.722500", "164632.722500", "164633.722500", "164634.722500", "164635.722500", "164636.722500", "164637.722500", "164638.722500", "164639.722500", "164640.722500", "164641.722500", "164642.722500", "164643.722500", "164644.722500", "164645.722500", "164646.722500", "164647.722500", "164648.722500", "164649.722500", "164650.722500", "164651.722500", "164652.722500", "164653.722500", "164654.722500", "164655.722500", "164656.722500", "164657.722500", "164658.722500", "164659.722500", "164700.722500", "164701.722500", "164702.722500", "164703.722500", "164704.722500", "164705.722500", "164706.722500", "164707.722500", "164708.722500", "164709.722500", "164710.722500", "164711.722500", "164712.722500", "164713.722500", "164714.722500", "164715.722500", "164716.722500", "164717.722500", "164718.722500", "164719.722500", "164720.722500", "164721.722500", "164722.722500", "164723.722500", "164724.722500", "164725.722500", "164726.722500", "164727.722500", "164728.722500", "164729.722500", "164730.722500", "164731.722500", "164732.722500", "164733.722500", "164734.722500", "164735.722500", "164736.722500", "164737.722500", "164738.722500", "164739.722500", "164740.722500", "164741.722500", "164742.722500", "164743.722500", "164744.722500", "164745.722500", "164746.722500", "164747.722500", "164748.722500", "164749.722500", "164750.722500", "164751.722500", "164752.722500", "164753.722500", "164754.722500", "164755.722500", "164756.722500", "164757.722500", "164758.722500", "164759.722500", "164800.722500", "164801.722500", "164802.722500", "164803.722500", "164804.722500", "164805.722500", "164806.722500", "164807.722500", "164808.722500", "164809.722500", "164810.722500", "164811.722500", "164812.722500", "164813.722500", "164814.722500", "164815.722500", "164816.722500", "164817.722500", "164818.722500", "164819.722500", "164820.722500", "164821.722500", "164822.722500", "164823.722500", "164824.722500", "164825.722500", "164826.722500", "164827.722500", "164828.722500", "164829.722500", "164830.722500", "164831.722500", "164832.722500", "164833.722500", "164834.722500", "164835.722500", "164836.722500", "164837.722500", "164838.722500", "164839.722500", "164840.722500", "164841.722500", "164842.722500", "164843.722500", "164844.722500", "164845.722500", "164846.722500", "164847.722500", "164848.722500", "164849.722500", "164850.722500", "164851.722500", "164852.722500", "164853.722500", "164854.722500", "164855.722500", "164856.722500", "164857.722500", "164858.722500", "164859.722500", "164900.722500", "164901.722500", "164902.722500", "164903.722500", "164904.722500", "164905.722500", "164906.722500", "164907.722500", "164908.722500", "164909.722500", "164910.722500", "164911.722500", "164912.722500", "164913.722500", "164914.722500", "164915.722500", "164916.722500", "164917.722500", "164918.722500", "164919.722500", "164920.722500", "164921.722500", "164922.722500", "164923.722500", "164924.722500", "164925.722500", "164926.722500", "164927.722500", "164928.722500", "164929.722500", "164930.722500", "164931.722500", "164932.722500"],
      "ContentTime": ["163937.163000", "163937.922000", "163938.933000", "163939.918000", "163940.927000", "163941.916000", "163942.941000", "163943.947000", "163944.927000", "163945.889000", "163946.948000", "163947.925000", "163948.894000", "163949.982000", "163950.909000", "163951.895000", "163952.918000", "163953.917000", "163954.870000", "163955.898000", "163956.888000", "163957.889000", "163958.898000", "163959.908000", "164000.861000", "164001.916000", "164002.936000", "164003.909000", "164004.916000", "164005.920000", "164006.922000", "164007.939000", "164008.897000", "164009.924000", "164010.923000", "164011.910000", "164012.876000", "164013.877000", "164014.936000", "164015.879000", "164016.913000", "164017.920000", "164018.906000", "164019.907000", "164020.936000", "164021.946000", "164022.889000", "164023.889000", "164024.922000", "164025.911000", "164026.917000", "164027.905000", "164028.903000", "164029.943000", "164030.928000", "164031.907000", "164032.920000", "164033.884000", "164034.902000", "164035.921000", "164036.927000", "164037.915000", "164038.870000", "164039.908000", "164040.924000", "164041.900000", "164042.897000", "164043.898000", "164044.928000", "164045.959000", "164046.907000", "164047.901000", "164048.930000", "164049.875000", "164050.916000", "164051.926000", "164052.946000", "164053.927000", "164054.908000", "164055.879000", "164056.898000", "164057.942000", "164058.891000", "164059.903000", "164100.925000", "164101.919000", "164102.909000", "164103.911000", "164104.882000", "164105.937000", "164106.914000", "164107.906000", "164108.899000", "164109.908000", "164110.972000", "164111.902000", "164112.902000", "164113.915000", "164114.889000", "164115.945000", "164116.904000", "164117.906000", "164118.971000", "164119.902000", "164120.900000", "164121.919000", "164122.932000", "164123.903000", "164124.909000", "164125.931000", "164126.874000", "164127.911000", "164128.914000", "164129.925000", "164130.895000", "164131.931000", "164132.873000", "164133.920000", "164134.912000", "164135.936000", "164136.911000", "164137.907000", "164138.908000", "164139.882000", "164140.928000", "164141.904000", "164142.894000", "164143.919000", "164144.912000", "164145.884000", "164146.915000", "164147.903000", "164148.931000", "164149.911000", "164150.917000", "164151.875000", "164152.931000", "164153.908000", "164154.882000", "164155.901000", "164156.915000", "164157.913000", "164158.946000", "164159.916000", "164200.941000", "164201.911000", "164202.899000", "164203.942000", "164204.945000", "164205.950000", "164206.916000", "164207.892000", "164208.903000", "164209.917000", "164210.916000", "164211.925000", "164212.959000", "164213.921000", "164214.911000", "164215.906000", "164216.921000", "164217.895000", "164218.859000", "164219.896000", "164220.895000", "164221.917000", "164222.924000", "164223.906000", "164224.899000", "164226.004000", "164226.961000", "164227.915000", "164228.904000", "164229.894000", "164230.913000", "164231.914000", "164232.904000", "164233.916000", "164234.912000", "164235.903000", "164236.907000", "164237.935000", "164238.912000", "164239.921000", "164240.908000", "164241.903000", "164242.909000", "164243.935000", "164244.888000", "164245.888000", "164246.889000", "164247.908000", "164248.933000", "164249.896000", "164250.912000", "164251.948000", "164252.959000", "164253.890000", "164254.917000", "164255.878000", "164256.904000", "164257.899000", "164258.888000", "164259.907000", "164300.911000", "164301.923000", "164302.904000", "164303.944000", "164304.878000", "164305.880000", "164306.891000", "164307.928000", "164308.893000", "164309.923000", "164310.899000", "164311.926000", "164312.900000", "164313.909000", "164314.891000", "164315.908000", "164316.986000", "164317.968000", "164318.910000", "164319.877000", "164320.891000", "164321.899000", "164322.934000", "164323.899000", "164324.897000", "164325.915000", "164326.887000", "164327.892000", "164328.893000", "164329.909000", "164330.938000", "164331.938000", "164332.899000", "164333.873000", "164334.894000", "164335.901000", "164336.892000", "164337.895000", "164338.900000", "164339.914000", "164340.925000", "164341.903000", "164342.912000", "164343.902000", "164344.930000", "164345.861000", "164346.926000", "164347.908000", "164348.931000", "164349.911000", "164350.899000", "164351.904000", "164352.906000", "164353.896000", "164354.923000", "164355.928000", "164356.898000", "164357.903000", "164358.901000", "164359.913000", "164400.877000", "164401.910000", "164402.881000", "164403.872000", "164404.874000", "164405.937000", "164406.892000", "164407.901000", "164408.889000", "164409.928000", "164410.899000", "164411.932000", "164412.884000", "164413.904000", "164414.901000", "164415.872000", "164416.924000", "164417.894000", "164418.909000", "164419.934000", "164420.915000", "164421.877000", "164422.912000", "164423.905000", "164424.910000", "164425.921000", "164426.896000", "164427.905000", "164428.931000", "164429.915000", "164430.921000", "164431.893000", "164432.919000", "164433.891000", "164434.919000", "164435.912000", "164436.902000", "164437.909000", "164438.910000", "164439.889000", "164440.899000", "164441.919000", "164442.870000", "164443.904000", "164444.894000", "164445.894000", "164446.890000", "164447.906000", "164448.862000", "164449.905000", "164450.914000", "164451.858000", "164452.890000", "164453.931000", "164454.893000", "164455.910000", "164456.898000", "164457.883000", "164458.883000", "164459.856000", "164500.903000", "164501.912000", "164502.898000", "164503.921000", "164504.932000", "164505.930000", "164506.919000", "164507.897000", "164508.929000", "164509.894000", "164510.896000", "164511.885000", "164512.902000", "164513.913000", "164514.892000", "164515.905000", "164516.907000", "164517.908000", "164518.907000", "164519.906000", "164520.897000", "164521.915000", "164522.893000", "164523.895000", "164524.884000", "164525.919000", "164526.934000", "164527.914000", "164528.921000", "164529.934000", "164530.898000", "164531.909000", "164532.909000", "164533.914000", "164534.934000", "164535.977000", "164536.921000", "164537.910000", "164538.912000", "164539.933000", "164540.936000", "164541.911000", "164542.927000", "164543.947000", "164544.920000", "164545.914000", "164546.933000", "164547.921000", "164548.891000", "164549.876000", "164550.869000", "164551.889000", "164552.902000", "164553.878000", "164554.919000", "164555.905000", "164556.897000", "164557.928000", "164558.966000", "164559.916000", "164600.885000", "164601.905000", "164602.926000", "164603.905000", "164604.879000", "164605.900000", "164606.874000", "164607.892000", "164608.920000", "164609.894000", "164610.931000", "164611.924000", "164612.913000", "164613.886000", "164614.935000", "164615.915000", "164616.890000", "164617.901000", "164618.912000", "164619.978000", "164620.913000", "164621.910000", "164622.915000", "164623.901000", "164624.879000", "164625.901000", "164626.905000", "164627.878000", "164628.909000", "164629.932000", "164630.920000", "164631.934000", "164632.918000", "164633.968000", "164634.921000", "164635.885000", "164636.928000", "164637.920000", "164638.878000", "164639.917000", "164640.915000", "164641.880000", "164642.906000", "164643.916000", "164644.899000", "164645.909000", "164646.911000", "164647.930000", "164648.886000", "164649.920000", "164650.907000", "164651.896000", "164652.929000", "164653.921000", "164654.908000", "164655.910000", "164656.972000", "164657.897000", "164658.975000", "164659.921000", "164700.911000", "164701.903000", "164702.926000", "164703.916000", "164704.901000", "164705.961000", "164706.915000", "164707.900000", "164708.864000", "164709.894000", "164710.910000", "164711.942000", "164712.901000", "164713.871000", "164714.891000", "164715.915000", "164716.920000", "164717.870000", "164718.949000", "164719.941000", "164720.905000", "164721.908000", "164722.891000", "164723.896000", "164724.905000", "164725.900000", "164726.921000", "164727.924000", "164728.901000", "164729.930000", "164730.895000", "164731.900000", "164732.898000", "164733.885000", "164734.891000", "164735.904000", "164736.903000", "164737.903000", "164738.915000", "164739.961000", "164740.893000", "164741.899000", "164742.923000", "164743.938000", "164744.877000", "164745.882000", "164746.916000", "164747.911000", "164748.926000", "164749.890000", "164750.906000", "164751.885000", "164752.891000", "164753.886000", "164754.909000", "164755.942000", "164756.859000", "164757.889000", "164758.897000", "164759.887000", "164800.874000", "164801.968000", "164802.880000", "164803.883000", "164804.885000", "164805.878000", "164806.889000", "164807.886000", "164808.959000", "164809.911000", "164810.905000", "164811.911000", "164812.890000", "164813.913000", "164814.893000", "164815.896000", "164816.894000", "164817.892000", "164818.888000", "164819.898000", "164820.897000", "164821.870000", "164822.878000", "164823.895000", "164824.890000", "164825.881000", "164826.895000", "164827.890000", "164828.895000", "164829.883000", "164830.877000", "164831.924000", "164832.947000", "164833.905000", "164834.886000", "164835.896000", "164836.904000", "164837.893000", "164838.890000", "164839.892000", "164840.872000", "164841.932000", "164842.908000", "164843.917000", "164844.912000", "164845.902000", "164846.893000", "164847.891000", "164848.906000", "164849.914000", "164850.968000", "164851.906000", "164852.898000", "164853.896000", "164854.880000", "164855.887000", "164856.889000", "164857.905000", "164858.907000", "164859.907000", "164900.904000", "164901.898000", "164902.902000", "164903.888000", "164904.910000", "164905.889000", "164906.880000", "164907.948000", "164908.940000", "164909.921000", "164910.911000", "164911.901000", "164912.888000", "164913.895000", "164914.898000", "164915.910000", "164916.877000", "164917.910000", "164918.929000", "164919.932000", "164920.946000", "164921.888000", "164922.903000", "164923.888000", "164924.906000", "164925.887000", "164926.915000", "164927.926000", "164928.908000", "164929.893000", "164930.902000", "164931.895000", "164932.884000", "164933.964000"],
