{
  "AcquisitionMatrixPE": 96,
  "AcquisitionNumber": 1,
  "AcquisitionTime": "11:58:2.830000",
  "BandwidthPerPixelPhaseEncode": 18.939,
  "BaseResolution": 96,
  "BodyPartExamined": "BRAIN",
  "ConsistencyInfo": "N4_VE11C_LATEST_20160120",
  "ConversionSoftware": "dcm2niix",
  "ConversionSoftwareVersion": "v1.0.20190902",
  "DerivedVendorReportedEchoSpacing": 0.000550011,
  "DeviceSerialNumber": "66112",
  "DwellTime": 2.2e-06,
  "EchoTime": 0.033,
  "EchoTrainLength": 96,
  "EffectiveEchoSpacing": 0.000550011,
  "FlipAngle": 59,
  "ImageOrientationPatientDICOM": [0.999831, 0.0168578, -0.00727989, -0.0174521, 0.995676, -0.0912451],
  "ImageType": [
    "ORIGINAL",
    "PRIMARY",
    "FMRI",
    "NONE",
    "ND",
    "NORM",
    "MOSAIC"
],
  "ImagingFrequency": 123.252,
  "InPlanePhaseEncodingDirectionDICOM": "COL",
  "InstitutionAddress": "Maynard_3_Hanover_NH_US_03755",
  "InstitutionName": "Dartmouth_College_-_PBS",
  "InstitutionalDepartmentName": "Department",
  "MRAcquisitionType": "2D",
  "MagneticFieldStrength": 3,
  "Manufacturer": "Siemens",
  "ManufacturersModelName": "Prisma",
  "Modality": "MR",
  "MultibandAccelerationFactor": 4,
  "PartialFourier": 1,
  "PatientPosition": "HFS",
  "PercentPhaseFOV": 100,
  "PhaseEncodingDirection": "j-",
  "PhaseEncodingSteps": 96,
  "PhaseResolution": 1,
  "PixelBandwidth": 2365,
  "ProcedureStepDescription": "Gobbini_Matteo_1037_budapest",
  "ProtocolName": "func_run-01_task-movie",
  "PulseSequenceDetails": "%SiemensSeq%_ep2d_bold",
  "ReceiveCoilActiveElements": "HEA;HEP",
  "ReceiveCoilName": "Head_32",
  "ReconMatrixPE": 96,
  "RefLinesPE": 12,
  "RepetitionTime": 1,
  "SAR": 0.0445693,
  "ScanOptions": "FS",
  "ScanningSequence": "EP",
  "SequenceName": "_epfid2d1_96",
  "SequenceVariant": "SK",
  "SeriesDescription": "func_run-01_task-movie",
  "SeriesNumber": 8,
  "ShimSetting": [4151, -7692, -7319, 532, -20, -252, -89, 81],
  "SliceThickness": 2.5,
  "SliceTiming": [0.735, 0, 0.49, 0.08, 0.57, 0.1625, 0.6525, 0.325, 0.815, 0.4075, 0.8975, 0.245, 0.735, 0, 0.49, 0.08, 0.57, 0.1625, 0.6525, 0.325, 0.815, 0.4075, 0.8975, 0.245, 0.735, 0, 0.49, 0.08, 0.57, 0.1625, 0.6525, 0.325, 0.815, 0.4075, 0.8975, 0.245, 0.735, 0, 0.49, 0.08, 0.57, 0.1625, 0.6525, 0.325, 0.815, 0.4075, 0.8975, 0.245],
  "SoftwareVersions": "syngo_MR_E11",
  "SpacingBetweenSlices": 2.5,
  "StationName": "AWP66112",
  "TaskName": "movie",
  "TotalReadoutTime": 0.0522511,
  "TxRefAmp": 247.482,
  "dcmmeta_affine": [
    [-2.4995784759521484, -0.04363035038113594, -0.014275528490543365, 117.61087036132812],
    [-0.04214461147785187, 2.4891889095306396, -0.2283918857574463, -99.6678695678711],
    [-0.018199723213911057, 0.22811274230480194, 2.48950457572937, -93.54549407958984],
    [0.0, 0.0, 0.0, 1.0]
],
  "dcmmeta_reorient_transform": [
    [0.0, -1.0, 0.0, 95.0],
    [1.0, 0.0, 0.0, 0.0],
    [0.0, 0.0, 1.0, 0.0],
    [0.0, 0.0, 0.0, 1.0]
],
  "dcmmeta_shape": [96, 96, 48, 598],
  "dcmmeta_slice_dim": 2,
  "dcmmeta_version": 0.6,
  "global": {
    "const": {
      "AccessionNumber": "A001593",
      "AcquisitionMatrix": [96, 0, 0, 96],
      "AngioFlag": "N",
      "BitsAllocated": 16,
      "BitsStored": 12,
      "BodyPartExamined": "BRAIN",
      "Columns": 672,
      "EchoNumbers": 1,
      "EchoTime": 33.0,
      "EchoTrainLength": 96,
      "FlipAngle": 59.0,
      "HighBit": 11,
      "ImageOrientationPatient": [0.99983139392292, 0.01685784513252, -0.0072798889856, -0.0174521405386, 0.99567552718038, -0.0912450950172],
      "ImagePositionPatient": [-820.77905151104, -865.82909628043, -0.9367978614921],
      "ImageType": [
        "ORIGINAL",
        "PRIMARY",
        "FMRI",
        "NONE",
        "ND",
        "NORM",
        "MOSAIC"
],
      "ImagedNucleus": "1H",
      "ImagingFrequency": 123.252338,
      "InPlanePhaseEncodingDirection": "COL",
      "MRAcquisitionType": "2D",
      "MagneticFieldStrength": 3.0,
      "Manufacturer": "SIEMENS",
      "ManufacturerModelName": "Prisma",
      "Modality": "MR",
      "NumberOfAverages": 1.0,
      "NumberOfPhaseEncodingSteps": 96,
      "PercentPhaseFieldOfView": 100.0,
      "PercentSampling": 100.0,
      "PerformedProcedureStepStartTime": "113745.472000",
      "PhotometricInterpretation": "MONOCHROME2",
      "PixelBandwidth": 2365.0,
      "PixelRepresentation": 0,
      "PixelSpacing": [2.5, 2.5],
      "ProtocolName": "func_run-01_task-movie",
      "RepetitionTime": 1000.0,
      "Rows": 672,
      "SAR": 0.04456932679769,
      "SamplesPerPixel": 1,
      "ScanOptions": "FS",
      "ScanningSequence": "EP",
      "SequenceName": "*epfid2d1_96",
      "SequenceVariant": "SK",
      "SeriesDescription": "func_run-01_task-movie",
      "SeriesNumber": 8,
      "SeriesTime": "115803.827000",
      "SliceLocation": -84.719028238853,
      "SliceThickness": 2.5,
      "SmallestImagePixelValue": 0,
      "SoftwareVersions": "syngo MR E11",
      "SpacingBetweenSlices": 2.4999999114991,
      "SpecificCharacterSet": "ISO_IR 100",
      "StudyID": "1",
      "StudyTime": "113745.410000",
      "TransmitCoilName": "Body",
      "VariableFlipAngleFlag": "N",
      "WindowCenterWidthExplanation": "Algo1",
      "dBdt": 0.0},
    "slices": {}
  },
  "time": {
    "samples": {
      "AcquisitionNumber": [1, 2, 3, 4, 5, 6, 7, 8, 9, 10, 11, 12, 13, 14, 15, 16, 17, 18, 19, 20, 21, 22, 23, 24, 25, 26, 27, 28, 29, 30, 31, 32, 33, 34, 35, 36, 37, 38, 39, 40, 41, 42, 43, 44, 45, 46, 47, 48, 49, 50, 51, 52, 53, 54, 55, 56, 57, 58, 59, 60, 61, 62, 63, 64, 65, 66, 67, 68, 69, 70, 71, 72, 73, 74, 75, 76, 77, 78, 79, 80, 81, 82, 83, 84, 85, 86, 87, 88, 89, 90, 91, 92, 93, 94, 95, 96, 97, 98, 99, 100, 101, 102, 103, 104, 105, 106, 107, 108, 109, 110, 111, 112, 113, 114, 115, 116, 117, 118, 119, 120, 121, 122, 123, 124, 125, 126, 127, 128, 129, 130, 131, 132, 133, 134, 135, 136, 137, 138, 139, 140, 141, 142, 143, 144, 145, 146, 147, 148, 149, 150, 151, 152, 153, 154, 155, 156, 157, 158, 159, 160, 161, 162, 163, 164, 165, 166, 167, 168, 169, 170, 171, 172, 173, 174, 175, 176, 177, 178, 179, 180, 181, 182, 183, 184, 185, 186, 187, 188, 189, 190, 191, 192, 193, 194, 195, 196, 197, 198, 199, 200, 201, 202, 203, 204, 205, 206, 207, 208, 209, 210, 211, 212, 213, 214, 215, 216, 217, 218, 219, 220, 221, 222, 223, 224, 225, 226, 227, 228, 229, 230, 231, 232, 233, 234, 235, 236, 237, 238, 239, 240, 241, 242, 243, 244, 245, 246, 247, 248, 249, 250, 251, 252, 253, 254, 255, 256, 257, 258, 259, 260, 261, 262, 263, 264, 265, 266, 267, 268, 269, 270, 271, 272, 273, 274, 275, 276, 277, 278, 279, 280, 281, 282, 283, 284, 285, 286, 287, 288, 289, 290, 291, 292, 293, 294, 295, 296, 297, 298, 299, 300, 301, 302, 303, 304, 305, 306, 307, 308, 309, 310, 311, 312, 313, 314, 315, 316, 317, 318, 319, 320, 321, 322, 323, 324, 325, 326, 327, 328, 329, 330, 331, 332, 333, 334, 335, 336, 337, 338, 339, 340, 341, 342, 343, 344, 345, 346, 347, 348, 349, 350, 351, 352, 353, 354, 355, 356, 357, 358, 359, 360, 361, 362, 363, 364, 365, 366, 367, 368, 369, 370, 371, 372, 373, 374, 375, 376, 377, 378, 379, 380, 381, 382, 383, 384, 385, 386, 387, 388, 389, 390, 391, 392, 393, 394, 395, 396, 397, 398, 399, 400, 401, 402, 403, 404, 405, 406, 407, 408, 409, 410, 411, 412, 413, 414, 415, 416, 417, 418, 419, 420, 421, 422, 423, 424, 425, 426, 427, 428, 429, 430, 431, 432, 433, 434, 435, 436, 437, 438, 439, 440, 441, 442, 443, 444, 445, 446, 447, 448, 449, 450, 451, 452, 453, 454, 455, 456, 457, 458, 459, 460, 461, 462, 463, 464, 465, 466, 467, 468, 469, 470, 471, 472, 473, 474, 475, 476, 477, 478, 479, 480, 481, 482, 483, 484, 485, 486, 487, 488, 489, 490, 491, 492, 493, 494, 495, 496, 497, 498, 499, 500, 501, 502, 503, 504, 505, 506, 507, 508, 509, 510, 511, 512, 513, 514, 515, 516, 517, 518, 519, 520, 521, 522, 523, 524, 525, 526, 527, 528, 529, 530, 531, 532, 533, 534, 535, 536, 537, 538, 539, 540, 541, 542, 543, 544, 545, 546, 547, 548, 549, 550, 551, 552, 553, 554, 555, 556, 557, 558, 559, 560, 561, 562, 563, 564, 565, 566, 567, 568, 569, 570, 571, 572, 573, 574, 575, 576, 577, 578, 579, 580, 581, 582, 583, 584, 585, 586, 587, 588, 589, 590, 591, 592, 593, 594, 595, 596, 597, 598],
      "AcquisitionTime": ["115802.830000", "115803.830000", "115804.830000", "115805.830000", "115806.830000", "115807.830000", "115808.830000", "115809.830000", "115810.830000", "115811.830000", "115812.830000", "115813.830000", "115814.830000", "115815.830000", "115816.830000", "115817.830000", "115818.830000", "115819.830000", "115820.830000", "115821.830000", "115822.830000", "115823.830000", "115824.830000", "115825.830000", "115826.830000", "115827.830000", "115828.830000", "115829.830000", "115830.830000", "115831.830000", "115832.830000", "115833.830000", "115834.830000", "115835.830000", "115836.830000", "115837.830000", "115838.830000", "115839.830000", "115840.830000", "115841.830000", "115842.830000", "115843.830000", "115844.830000", "115845.830000", "115846.830000", "115847.830000", "115848.830000", "115849.830000", "115850.830000", "115851.830000", "115852.830000", "115853.830000", "115854.830000", "115855.830000", "115856.830000", "115857.830000", "115858.830000", "115859.830000", "115900.830000", "115901.830000", "115902.830000", "115903.830000", "115904.830000", "115905.830000", "115906.830000", "115907.830000", "115908.830000", "115909.830000", "115910.830000", "115911.830000", "115912.830000", "115913.830000", "115914.830000", "115915.830000", "115916.830000", "115917.830000", "115918.830000", "115919.830000", "115920.830000", "115921.830000", "115922.830000", "115923.830000", "115924.830000", "115925.830000", "115926.830000", "115927.830000", "115928.830000", "115929.830000", "115930.830000", "115931.830000", "115932.830000", "115933.830000", "115934.830000", "115935.830000", "115936.830000", "115937.830000", "115938.830000", "115939.830000", "115940.830000", "115941.830000", "115942.830000", "115943.830000", "115944.830000", "115945.830000", "115946.830000", "115947.830000", "115948.830000", "115949.830000", "115950.830000", "115951.830000", "115952.830000", "115953.830000", "115954.830000", "115955.830000", "115956.830000", "115957.830000", "115958.830000", "115959.830000", "120000.830000", "120001.830000", "120002.830000", "120003.830000", "120004.830000", "120005.830000", "120006.830000", "120007.830000", "120008.830000", "120009.830000", "120010.830000", "120011.830000", "120012.830000", "120013.830000", "120014.830000", "120015.830000", "120016.830000", "120017.830000", "120018.830000", "120019.830000", "120020.830000", "120021.830000", "120022.830000", "120023.830000", "120024.830000", "120025.830000", "120026.830000", "120027.830000", "120028.830000", "120029.830000", "120030.830000", "120031.830000", "120032.830000", "120033.830000", "120034.830000", "120035.830000", "120036.830000", "120037.830000", "120038.830000", "120039.830000", "120040.830000", "120041.830000", "120042.830000", "120043.830000", "120044.830000", "120045.830000", "120046.830000", "120047.830000", "120048.830000", "120049.830000", "120050.830000", "120051.830000", "120052.830000", "120053.830000", "120054.830000", "120055.830000", "120056.830000", "120057.830000", "120058.830000", "120059.830000", "120100.830000", "120101.830000", "120102.830000", "120103.830000", "120104.830000", "120105.830000", "120106.830000", "120107.830000", "120108.830000", "120109.830000", "120110.830000", "120111.830000", "120112.830000", "120113.830000", "120114.830000", "120115.830000", "120116.830000", "120117.830000", "120118.830000", "120119.830000", "120120.830000", "120121.830000", "120122.830000", "120123.830000", "120124.830000", "120125.830000", "120126.830000", "120127.830000", "120128.830000", "120129.830000", "120130.830000", "120131.830000", "120132.830000", "120133.830000", "120134.830000", "120135.830000", "120136.830000", "120137.830000", "120138.830000", "120139.830000", "120140.830000", "120141.830000", "120142.830000", "120143.830000", "120144.830000", "120145.830000", "120146.830000", "120147.830000", "120148.830000", "120149.830000", "120150.830000", "120151.830000", "120152.830000", "120153.830000", "120154.830000", "120155.830000", "120156.830000", "120157.830000", "120158.830000", "120159.830000", "120200.830000", "120201.830000", "120202.830000", "120203.830000", "120204.830000", "120205.830000", "120206.830000", "120207.830000", "120208.830000", "120209.830000", "120210.830000", "120211.830000", "120212.830000", "120213.830000", "120214.830000", "120215.830000", "120216.830000", "120217.830000", "120218.830000", "120219.830000", "120220.830000", "120221.830000", "120222.830000", "120223.830000", "120224.830000", "120225.830000", "120226.830000", "120227.830000", "120228.830000", "120229.830000", "120230.830000", "120231.830000", "120232.830000", "120233.830000", "120234.830000", "120235.830000", "120236.830000", "120237.830000", "120238.830000", "120239.830000", "120240.830000", "120241.830000", "120242.830000", "120243.830000", "120244.830000", "120245.830000", "120246.830000", "120247.830000", "120248.830000", "120249.830000", "120250.830000", "120251.830000", "120252.830000", "120253.830000", "120254.830000", "120255.830000", "120256.830000", "120257.830000", "120258.830000", "120259.830000", "120300.830000", "120301.830000", "120302.830000", "120303.830000", "120304.830000", "120305.830000", "120306.830000", "120307.830000", "120308.830000", "120309.830000", "120310.830000", "120311.830000", "120312.830000", "120313.830000", "120314.830000", "120315.830000", "120316.830000", "120317.830000", "120318.830000", "120319.830000", "120320.830000", "120321.830000", "120322.830000", "120323.830000", "120324.830000", "120325.830000", "120326.830000", "120327.830000", "120328.830000", "120329.830000", "120330.830000", "120331.830000", "120332.830000", "120333.830000", "120334.830000", "120335.830000", "120336.830000", "120337.830000", "120338.830000", "120339.830000", "120340.830000", "120341.830000", "120342.830000", "120343.830000", "120344.830000", "120345.830000", "120346.830000", "120347.830000", "120348.830000", "120349.830000", "120350.830000", "120351.830000", "120352.830000", "120353.830000", "120354.830000", "120355.830000", "120356.830000", "120357.830000", "120358.830000", "120359.830000", "120400.830000", "120401.830000", "120402.830000", "120403.830000", "120404.830000", "120405.830000", "120406.830000", "120407.830000", "120408.830000", "120409.830000", "120410.830000", "120411.830000", "120412.830000", "120413.830000", "120414.830000", "120415.830000", "120416.830000", "120417.830000", "120418.830000", "120419.830000", "120420.830000", "120421.830000", "120422.830000", "120423.830000", "120424.830000", "120425.830000", "120426.830000", "120427.830000", "120428.830000", "120429.830000", "120430.830000", "120431.830000", "120432.830000", "120433.830000", "120434.830000", "120435.830000", "120436.830000", "120437.830000", "120438.830000", "120439.830000", "120440.830000", "120441.830000", "120442.830000", "120443.830000", "120444.830000", "120445.830000", "120446.830000", "120447.830000", "120448.830000", "120449.830000", "120450.830000", "120451.830000", "120452.830000", "120453.830000", "120454.830000", "120455.830000", "120456.830000", "120457.830000", "120458.830000", "120459.830000", "120500.830000", "120501.830000", "120502.830000", "120503.830000", "120504.830000", "120505.830000", "120506.830000", "120507.830000", "120508.830000", "120509.830000", "120510.830000", "120511.830000", "120512.830000", "120513.830000", "120514.830000", "120515.830000", "120516.830000", "120517.830000", "120518.830000", "120519.830000", "120520.830000", "120521.830000", "120522.830000", "120523.830000", "120524.830000", "120525.830000", "120526.830000", "120527.830000", "120528.830000", "120529.830000", "120530.830000", "120531.830000", "120532.830000", "120533.830000", "120534.830000", "120535.830000", "120536.830000", "120537.830000", "120538.830000", "120539.830000", "120540.830000", "120541.830000", "120542.830000", "120543.830000", "120544.830000", "120545.830000", "120546.830000", "120547.830000", "120548.830000", "120549.830000", "120550.830000", "120551.830000", "120552.830000", "120553.830000", "120554.830000", "120555.830000", "120556.830000", "120557.830000", "120558.830000", "120559.830000", "120600.830000", "120601.830000", "120602.830000", "120603.830000", "120604.830000", "120605.830000", "120606.830000", "120607.830000", "120608.830000", "120609.830000", "120610.830000", "120611.830000", "120612.830000", "120613.830000", "120614.830000", "120615.830000", "120616.830000", "120617.830000", "120618.830000", "120619.830000", "120620.830000", "120621.830000", "120622.830000", "120623.830000", "120624.830000", "120625.830000", "120626.830000", "120627.830000", "120628.830000", "120629.830000", "120630.830000", "120631.830000", "120632.830000", "120633.830000", "120634.830000", "120635.830000", "120636.830000", "120637.830000", "120638.830000", "120639.830000", "120640.830000", "120641.830000", "120642.830000", "120643.830000", "120644.830000", "120645.830000", "120646.830000", "120647.830000", "120648.830000", "120649.830000", "120650.830000", "120651.830000", "120652.830000", "120653.830000", "120654.830000", "120655.830000", "120656.830000", "120657.830000", "120658.830000", "120659.830000", "120700.830000", "120701.830000", "120702.830000", "120703.830000", "120704.830000", "120705.830000", "120706.830000", "120707.830000", "120708.830000", "120709.830000", "120710.830000", "120711.830000", "120712.830000", "120713.830000", "120714.830000", "120715.830000", "120716.830000", "120717.830000", "120718.830000", "120719.830000", "120720.830000", "120721.830000", "120722.830000", "120723.830000", "120724.830000", "120725.830000", "120726.830000", "120727.830000", "120728.830000", "120729.830000", "120730.830000", "120731.830000", "120732.830000", "120733.830000", "120734.830000", "120735.830000", "120736.830000", "120737.830000", "120738.830000", "120739.830000", "120740.830000", "120741.830000", "120742.830000", "120743.830000", "120744.830000", "120745.830000", "120746.830000", "120747.830000", "120748.830000", "120749.830000", "120750.830000", "120751.830000", "120752.830000", "120753.830000", "120754.830000", "120755.830000", "120756.830000", "120757.830000", "120758.830000", "120759.830000"],
      "ContentTime": ["115803.831000", "115804.570000", "115805.567000", "115806.560000", "115807.607000", "115808.571000", "115809.575000", "115810.578000", "115811.557000", "115812.545000", "115813.572000", "115814.597000", "115815.561000", "115816.617000", "115817.578000", "115818.582000", "115819.570000", "115820.574000", "115821.596000", "115822.569000", "115823.555000", "115824.561000", "115825.565000", "115826.567000", "115827.563000", "115828.548000", "115829.584000", "115830.553000", "115831.566000", "115832.598000", "115833.560000", "115834.575000", "115835.580000", "115836.566000", "115837.567000", "115838.565000", "115839.570000", "115840.547000", "115841.589000", "115842.559000", "115843.550000", "115844.566000", "115845.594000", "115846.579000", "115847.537000", "115848.596000", "115849.550000", "115850.581000", "115851.534000", "115852.556000", "115853.590000", "115854.557000", "115855.563000", "115856.574000", "115857.568000", "115858.581000", "115859.563000", "115900.583000", "115901.562000", "115902.579000", "115903.563000", "115904.608000", "115905.547000", "115906.569000", "115907.612000", "115908.592000", "115909.567000", "115910.557000", "115911.586000", "115912.562000", "115913.594000", "115914.589000", "115915.607000", "115916.612000", "115917.563000", "115918.554000", "115919.574000", "115920.563000", "115921.581000", "115922.598000", "115923.596000", "115924.562000", "115925.567000", "115926.579000", "115927.562000", "115928.571000", "115929.559000", "115930.544000", "115931.558000", "115932.561000", "115933.553000", "115934.553000", "115935.559000", "115936.554000", "115937.583000", "115938.573000", "115939.555000", "115940.563000", "115941.593000", "115942.590000", "115943.592000", "115944.603000", "115945.564000", "115946.582000", "115947.615000", "115948.588000", "115949.551000", "115950.567000", "115951.566000", "115952.606000", "115953.566000", "115954.564000", "115955.572000", "115956.573000", "115957.572000", "115958.580000", "115959.580000", "120000.570000", "120001.579000", "120002.577000", "120003.568000", "120004.583000", "120005.630000", "120006.574000", "120007.606000", "120008.530000", "120009.551000", "120010.552000", "120011.561000", "120012.578000", "120013.567000", "120014.574000", "120015.565000", "120016.603000", "120017.561000", "120018.560000", "120019.571000", "120020.563000", "120021.567000", "120022.596000", "120023.562000", "120024.580000", "120025.561000", "120026.581000", "120027.598000", "120028.582000", "120029.563000", "120030.635000", "120031.581000", "120032.566000", "120033.604000", "120034.567000", "120035.545000", "120036.572000", "120037.569000", "120038.580000", "120039.555000", "120040.564000", "120041.570000", "120042.630000", "120043.584000", "120044.574000", "120045.559000", "120046.557000", "120047.647000", "120048.577000", "120049.658000", "120050.565000", "120051.545000", "120052.597000", "120053.573000", "120054.567000", "120055.549000", "120056.570000", "120057.599000", "120058.571000", "120059.570000", "120100.576000", "120101.551000", "120102.560000", "120103.574000", "120104.583000", "120105.562000", "120106.569000", "120107.613000", "120108.623000", "120109.562000", "120110.587000", "120111.579000", "120112.610000", "120113.593000", "120114.570000", "120115.577000", "120116.574000", "120117.584000", "120118.615000", "120119.561000", "120120.566000", "120121.550000", "120122.575000", "120123.551000", "120124.558000", "120125.563000", "120126.571000", "120127.574000", "120128.637000", "120129.571000", "120130.552000", "120131.552000", "120132.562000", "120133.570000", "120134.605000", "120135.575000", "120136.553000", "120137.596000", "120138.613000", "120139.561000", "120140.580000", "120141.565000", "120142.574000", "120143.567000", "120144.588000", "120145.572000", "120146.588000", "120147.562000", "120148.589000", "120149.660000", "120150.606000", "120151.553000", "120152.587000", "120153.591000", "120154.591000", "120155.573000", "120156.582000", "120157.584000", "120158.609000", "120159.582000", "120200.564000", "120201.566000", "120202.596000", "120203.591000", "120204.565000", "120205.629000", "120206.568000", "120207.568000", "120208.588000", "120209.607000", "120210.569000", "120211.564000", "120212.567000", "120213.602000", "120214.554000", "120215.566000", "120216.591000", "120217.565000", "120218.566000", "120219.581000", "120221.197000", "120221.569000", "120222.606000", "120223.555000", "120224.591000", "120225.575000", "120226.587000", "120227.571000", "120228.603000", "120229.575000", "120230.570000", "120231.586000", "120232.581000", "120233.579000", "120234.610000", "120235.551000", "120236.543000", "120237.559000", "120238.597000", "120239.570000", "120240.579000", "120241.584000", "120242.560000", "120243.591000", "120244.586000", "120245.549000", "120246.578000", "120247.578000", "120248.621000", "120249.576000", "120250.560000", "120251.555000", "120252.564000", "120253.581000", "120254.568000", "120255.590000", "120256.579000", "120257.608000", "120258.621000", "120259.585000", "120300.569000", "120301.578000", "120302.579000", "120303.572000", "120304.565000", "120305.571000", "120306.586000", "120307.580000", "120308.619000", "120309.570000", "120310.549000", "120311.581000", "120312.559000", "120313.570000", "120314.559000", "120315.591000", "120316.567000", "120317.620000", "120318.585000", "120319.601000", "120320.558000", "120321.591000", "120322.574000", "120323.572000", "120324.582000", "120325.580000", "120326.600000", "120327.578000", "120328.609000", "120329.605000", "120330.532000", "120331.598000", "120332.590000", "120333.581000", "120334.621000", "120335.617000", "120336.644000", "120337.614000", "120338.561000", "120339.555000", "120340.583000", "120341.582000", "120342.544000", "120343.567000", "120344.579000", "120345.604000", "120346.556000", "120347.571000", "120348.611000", "120349.593000", "120350.576000", "120351.599000", "120352.591000", "120353.587000", "120354.618000", "120355.574000", "120356.565000", "120357.587000", "120358.613000", "120359.572000", "120400.570000", "120401.594000", "120402.560000", "120403.554000", "120404.585000", "120405.571000", "120406.571000", "120407.581000", "120408.560000", "120409.575000", "120410.571000", "120411.619000", "120412.568000", "120413.571000", "120414.594000", "120415.564000", "120416.604000", "120417.587000", "120418.589000", "120419.587000", "120420.579000", "120421.587000", "120422.585000", "120423.554000", "120424.593000", "120425.598000", "120426.599000", "120427.572000", "120428.563000", "120429.562000", "120430.582000", "120431.571000", "120432.577000", "120433.560000", "120434.535000", "120435.550000", "120436.569000", "120437.555000", "120438.591000", "120439.603000", "120440.555000", "120441.574000", "120442.593000", "120443.539000", "120444.636000", "120445.568000", "120446.544000", "120447.548000", "120448.564000", "120449.564000", "120450.576000", "120451.611000", "120452.584000", "120453.588000", "120454.570000", "120455.572000", "120456.567000", "120457.571000", "120458.606000", "120459.578000", "120500.580000", "120501.552000", "120502.598000", "120503.570000", "120504.604000", "120505.571000", "120506.568000", "120507.588000", "120508.596000", "120509.565000", "120510.573000", "120511.564000", "120512.562000", "120513.574000", "120514.575000", "120515.569000", "120516.556000", "120517.584000", "120518.556000", "120519.578000", "120520.589000", "120521.572000", "120522.572000", "120523.608000", "120524.597000", "120525.601000", "120526.563000", "120527.579000", "120528.576000", "120529.576000", "120530.572000", "120531.578000", "120532.597000", "120533.608000", "120534.588000", "120535.571000", "120536.558000", "120537.574000", "120538.565000", "120539.553000", "120540.561000", "120541.597000", "120542.583000", "120543.578000", "120544.586000", "120545.581000", "120546.561000", "120547.565000", "120548.606000", "120549.604000", "120550.570000", "120551.560000", "120552.579000", "120553.590000", "120554.564000", "120555.557000", "120556.569000", "120557.597000", "120558.568000", "120559.553000", "120600.560000", "120601.582000", "120602.535000", "120603.561000", "120604.573000", "120605.576000", "120606.570000", "120607.553000", "120608.622000", "120609.556000", "120610.559000", "120611.579000", "120612.607000", "120613.573000", "120614.552000", "120615.569000", "120616.562000", "120617.555000", "120618.561000", "120619.555000", "120620.555000", "120621.568000", "120622.573000", "120623.605000", "120624.557000", "120625.586000", "120626.537000", "120627.566000", "120628.558000", "120629.566000", "120630.570000", "120631.543000", "120632.605000", "120633.573000", "120634.575000", "120635.551000", "120636.622000", "120637.549000", "120638.547000", "120639.603000", "120640.567000", "120641.564000", "120642.574000", "120643.585000", "120644.574000", "120645.582000", "120646.558000", "120647.569000", "120648.595000", "120649.526000", "120650.638000", "120651.592000", "120652.548000", "120653.563000", "120654.585000", "120655.558000", "120656.564000", "120657.566000", "120658.575000", "120659.564000", "120700.549000", "120701.553000", "120702.599000", "120703.608000", "120704.627000", "120705.553000", "120706.610000", "120707.572000", "120708.579000", "120709.553000", "120710.557000", "120711.555000", "120712.548000", "120713.577000", "120714.589000", "120715.567000", "120716.553000", "120717.566000", "120718.586000", "120719.563000", "120720.573000", "120721.581000", "120722.562000", "120723.565000", "120724.544000", "120725.551000", "120726.567000", "120727.568000", "120728.559000", "120729.623000", "120730.552000", "120731.631000", "120732.556000", "120733.555000", "120734.528000", "120735.579000", "120736.580000", "120737.602000", "120738.551000", "120739.558000", "120740.618000", "120741.559000", "120742.592000", "120743.568000", "120744.561000", "120745.550000", "120746.552000", "120747.566000", "120748.563000", "120749.613000", "120750.575000", "120751.583000", "120752.582000", "120753.561000", "120754.521000", "120755.561000", "120756.569000", "120757.560000", "120758.566000", "120759.590000", "120800.581000"],
