{
  "AcquisitionMatrixPE": 96,
  "AcquisitionNumber": 1,
  "AcquisitionTime": "12:08:52.790000",
  "BandwidthPerPixelPhaseEncode": 18.939,
  "BaseResolution": 96,
  "BodyPartExamined": "BRAIN",
  "ConsistencyInfo": "N4_VE11C_LATEST_20160120",
  "ConversionSoftware": "dcm2niix",
  "ConversionSoftwareVersion": "v1.0.20190902",
  "DerivedVendorReportedEchoSpacing": 0.000550011,
  "DeviceSerialNumber": "66112",
  "DwellTime": 2.2e-06,
  "EchoTime": 0.033,
  "EchoTrainLength": 96,
  "EffectiveEchoSpacing": 0.000550011,
  "FlipAngle": 59,
  "ImageOrientationPatientDICOM": [0.999831, 0.0168578, -0.00727989, -0.0174521, 0.995676, -0.0912451],
  "ImageType": [
    "ORIGINAL",
    "PRIMARY",
    "FMRI",
    "NONE",
    "ND",
    "NORM",
    "MOSAIC"
],
  "ImagingFrequency": 123.252,
  "InPlanePhaseEncodingDirectionDICOM": "COL",
  "InstitutionAddress": "Maynard_3_Hanover_NH_US_03755",
  "InstitutionName": "Dartmouth_College_-_PBS",
  "InstitutionalDepartmentName": "Department",
  "MRAcquisitionType": "2D",
  "MagneticFieldStrength": 3,
  "Manufacturer": "Siemens",
  "ManufacturersModelName": "Prisma",
  "Modality": "MR",
  "MultibandAccelerationFactor": 4,
  "PartialFourier": 1,
  "PatientPosition": "HFS",
  "PercentPhaseFOV": 100,
  "PhaseEncodingDirection": "j-",
  "PhaseEncodingSteps": 96,
  "PhaseResolution": 1,
  "PixelBandwidth": 2365,
  "ProcedureStepDescription": "Gobbini_Matteo_1037_budapest",
  "ProtocolName": "func_run-02_task-movie",
  "PulseSequenceDetails": "%SiemensSeq%_ep2d_bold",
  "ReceiveCoilActiveElements": "HEA;HEP",
  "ReceiveCoilName": "Head_32",
  "ReconMatrixPE": 96,
  "RefLinesPE": 12,
  "RepetitionTime": 1,
  "SAR": 0.0445211,
  "ScanOptions": "FS",
  "ScanningSequence": "EP",
  "SequenceName": "_epfid2d1_96",
  "SequenceVariant": "SK",
  "SeriesDescription": "func_run-02_task-movie",
  "SeriesNumber": 15,
  "ShimSetting": [4151, -7692, -7319, 532, -20, -252, -89, 81],
  "SliceThickness": 2.5,
  "SliceTiming": [0.735, 0, 0.49, 0.0825, 0.57, 0.1625, 0.6525, 0.325, 0.815, 0.4075, 0.8975, 0.245, 0.735, 0, 0.49, 0.0825, 0.57, 0.1625, 0.6525, 0.325, 0.815, 0.4075, 0.8975, 0.245, 0.735, 0, 0.49, 0.0825, 0.57, 0.1625, 0.6525, 0.325, 0.815, 0.4075, 0.8975, 0.245, 0.735, 0, 0.49, 0.0825, 0.57, 0.1625, 0.6525, 0.325, 0.815, 0.4075, 0.8975, 0.245],
  "SoftwareVersions": "syngo_MR_E11",
  "SpacingBetweenSlices": 2.5,
  "StationName": "AWP66112",
  "TaskName": "movie",
  "TotalReadoutTime": 0.0522511,
  "TxRefAmp": 247.482,
  "dcmmeta_affine": [
    [-2.4995784759521484, -0.04363035038113594, -0.014275528490543365, 117.61087036132812],
    [-0.04214461147785187, 2.4891889095306396, -0.2283918857574463, -99.6678695678711],
    [-0.018199723213911057, 0.22811274230480194, 2.48950457572937, -93.54549407958984],
    [0.0, 0.0, 0.0, 1.0]
],
  "dcmmeta_reorient_transform": [
    [0.0, -1.0, 0.0, 95.0],
    [1.0, 0.0, 0.0, 0.0],
    [0.0, 0.0, 1.0, 0.0],
    [0.0, 0.0, 0.0, 1.0]
],
  "dcmmeta_shape": [96, 96, 48, 498],
  "dcmmeta_slice_dim": 2,
  "dcmmeta_version": 0.6,
  "global": {
    "const": {
      "AccessionNumber": "A001593",
      "AcquisitionMatrix": [96, 0, 0, 96],
      "AngioFlag": "N",
      "BitsAllocated": 16,
      "BitsStored": 12,
      "BodyPartExamined": "BRAIN",
      "Columns": 672,
      "EchoNumbers": 1,
      "EchoTime": 33.0,
      "EchoTrainLength": 96,
      "FlipAngle": 59.0,
      "HighBit": 11,
      "ImageOrientationPatient": [0.99983139392292, 0.01685784513252, -0.0072798889856, -0.0174521405386, 0.99567552718038, -0.0912450950172],
      "ImagePositionPatient": [-820.77905151104, -865.82909628043, -0.9367978614921],
      "ImageType": [
        "ORIGINAL",
        "PRIMARY",
        "FMRI",
        "NONE",
        "ND",
        "NORM",
        "MOSAIC"
],
      "ImagedNucleus": "1H",
      "ImagingFrequency": 123.252343,
      "InPlanePhaseEncodingDirection": "COL",
      "MRAcquisitionType": "2D",
      "MagneticFieldStrength": 3.0,
      "Manufacturer": "SIEMENS",
      "ManufacturerModelName": "Prisma",
      "Modality": "MR",
      "NumberOfAverages": 1.0,
      "NumberOfPhaseEncodingSteps": 96,
      "PercentPhaseFieldOfView": 100.0,
      "PercentSampling": 100.0,
      "PerformedProcedureStepStartTime": "113745.472000",
      "PhotometricInterpretation": "MONOCHROME2",
      "PixelBandwidth": 2365.0,
      "PixelRepresentation": 0,
      "PixelSpacing": [2.5, 2.5],
      "ProtocolName": "func_run-02_task-movie",
      "RepetitionTime": 1000.0,
      "Rows": 672,
      "SAR": 0.04452112154622,
      "SamplesPerPixel": 1,
      "ScanOptions": "FS",
      "ScanningSequence": "EP",
      "SequenceName": "*epfid2d1_96",
      "SequenceVariant": "SK",
      "SeriesDescription": "func_run-02_task-movie",
      "SeriesNumber": 15,
      "SeriesTime": "120854.277000",
      "SliceLocation": -84.719028238853,
      "SliceThickness": 2.5,
      "SmallestImagePixelValue": 0,
      "SoftwareVersions": "syngo MR E11",
      "SpacingBetweenSlices": 2.4999999114991,
      "SpecificCharacterSet": "ISO_IR 100",
      "StudyID": "1",
      "StudyTime": "113745.410000",
      "TransmitCoilName": "Body",
      "VariableFlipAngleFlag": "N",
      "WindowCenterWidthExplanation": "Algo1",
      "dBdt": 0.0},
    "slices": {}
  },
  "time": {
    "samples": {
      "AcquisitionNumber": [1, 2, 3, 4, 5, 6, 7, 8, 9, 10, 11, 12, 13, 14, 15, 16, 17, 18, 19, 20, 21, 22, 23, 24, 25, 26, 27, 28, 29, 30, 31, 32, 33, 34, 35, 36, 37, 38, 39, 40, 41, 42, 43, 44, 45, 46, 47, 48, 49, 50, 51, 52, 53, 54, 55, 56, 57, 58, 59, 60, 61, 62, 63, 64, 65, 66, 67, 68, 69, 70, 71, 72, 73, 74, 75, 76, 77, 78, 79, 80, 81, 82, 83, 84, 85, 86, 87, 88, 89, 90, 91, 92, 93, 94, 95, 96, 97, 98, 99, 100, 101, 102, 103, 104, 105, 106, 107, 108, 109, 110, 111, 112, 113, 114, 115, 116, 117, 118, 119, 120, 121, 122, 123, 124, 125, 126, 127, 128, 129, 130, 131, 132, 133, 134, 135, 136, 137, 138, 139, 140, 141, 142, 143, 144, 145, 146, 147, 148, 149, 150, 151, 152, 153, 154, 155, 156, 157, 158, 159, 160, 161, 162, 163, 164, 165, 166, 167, 168, 169, 170, 171, 172, 173, 174, 175, 176, 177, 178, 179, 180, 181, 182, 183, 184, 185, 186, 187, 188, 189, 190, 191, 192, 193, 194, 195, 196, 197, 198, 199, 200, 201, 202, 203, 204, 205, 206, 207, 208, 209, 210, 211, 212, 213, 214, 215, 216, 217, 218, 219, 220, 221, 222, 223, 224, 225, 226, 227, 228, 229, 230, 231, 232, 233, 234, 235, 236, 237, 238, 239, 240, 241, 242, 243, 244, 245, 246, 247, 248, 249, 250, 251, 252, 253, 254, 255, 256, 257, 258, 259, 260, 261, 262, 263, 264, 265, 266, 267, 268, 269, 270, 271, 272, 273, 274, 275, 276, 277, 278, 279, 280, 281, 282, 283, 284, 285, 286, 287, 288, 289, 290, 291, 292, 293, 294, 295, 296, 297, 298, 299, 300, 301, 302, 303, 304, 305, 306, 307, 308, 309, 310, 311, 312, 313, 314, 315, 316, 317, 318, 319, 320, 321, 322, 323, 324, 325, 326, 327, 328, 329, 330, 331, 332, 333, 334, 335, 336, 337, 338, 339, 340, 341, 342, 343, 344, 345, 346, 347, 348, 349, 350, 351, 352, 353, 354, 355, 356, 357, 358, 359, 360, 361, 362, 363, 364, 365, 366, 367, 368, 369, 370, 371, 372, 373, 374, 375, 376, 377, 378, 379, 380, 381, 382, 383, 384, 385, 386, 387, 388, 389, 390, 391, 392, 393, 394, 395, 396, 397, 398, 399, 400, 401, 402, 403, 404, 405, 406, 407, 408, 409, 410, 411, 412, 413, 414, 415, 416, 417, 418, 419, 420, 421, 422, 423, 424, 425, 426, 427, 428, 429, 430, 431, 432, 433, 434, 435, 436, 437, 438, 439, 440, 441, 442, 443, 444, 445, 446, 447, 448, 449, 450, 451, 452, 453, 454, 455, 456, 457, 458, 459, 460, 461, 462, 463, 464, 465, 466, 467, 468, 469, 470, 471, 472, 473, 474, 475, 476, 477, 478, 479, 480, 481, 482, 483, 484, 485, 486, 487, 488, 489, 490, 491, 492, 493, 494, 495, 496, 497, 498],
      "AcquisitionTime": ["120852.790000", "120853.790000", "120854.790000", "120855.790000", "120856.790000", "120857.790000", "120858.790000", "120859.790000", "120900.790000", "120901.790000", "120902.790000", "120903.790000", "120904.790000", "120905.790000", "120906.790000", "120907.790000", "120908.790000", "120909.790000", "120910.790000", "120911.790000", "120912.790000", "120913.790000", "120914.790000", "120915.790000", "120916.790000", "120917.790000", "120918.790000", "120919.790000", "120920.790000", "120921.790000", "120922.790000", "120923.790000", "120924.790000", "120925.790000", "120926.790000", "120927.790000", "120928.790000", "120929.790000", "120930.790000", "120931.790000", "120932.790000", "120933.790000", "120934.790000", "120935.790000", "120936.790000", "120937.790000", "120938.790000", "120939.790000", "120940.790000", "120941.790000", "120942.790000", "120943.790000", "120944.790000", "120945.790000", "120946.790000", "120947.790000", "120948.790000", "120949.790000", "120950.790000", "120951.790000", "120952.790000", "120953.790000", "120954.790000", "120955.790000", "120956.790000", "120957.790000", "120958.790000", "120959.790000", "121000.790000", "121001.790000", "121002.790000", "121003.790000", "121004.790000", "121005.790000", "121006.790000", "121007.790000", "121008.790000", "121009.790000", "121010.790000", "121011.790000", "121012.790000", "121013.790000", "121014.790000", "121015.790000", "121016.790000", "121017.790000", "121018.790000", "121019.790000", "121020.790000", "121021.790000", "121022.790000", "121023.790000", "121024.790000", "121025.790000", "121026.790000", "121027.790000", "121028.790000", "121029.790000", "121030.790000", "121031.790000", "121032.790000", "121033.790000", "121034.790000", "121035.790000", "121036.790000", "121037.790000", "121038.790000", "121039.790000", "121040.790000", "121041.790000", "121042.790000", "121043.790000", "121044.790000", "121045.790000", "121046.790000", "121047.790000", "121048.790000", "121049.790000", "121050.790000", "121051.790000", "121052.790000", "121053.790000", "121054.790000", "121055.790000", "121056.790000", "121057.790000", "121058.790000", "121059.790000", "121100.790000", "121101.790000", "121102.790000", "121103.790000", "121104.790000", "121105.790000", "121106.790000", "121107.790000", "121108.790000", "121109.790000", "121110.790000", "121111.790000", "121112.790000", "121113.790000", "121114.790000", "121115.790000", "121116.790000", "121117.790000", "121118.790000", "121119.790000", "121120.790000", "121121.790000", "121122.790000", "121123.790000", "121124.790000", "121125.790000", "121126.790000", "121127.790000", "121128.790000", "121129.790000", "121130.790000", "121131.790000", "121132.790000", "121133.790000", "121134.790000", "121135.790000", "121136.790000", "121137.790000", "121138.790000", "121139.790000", "121140.790000", "121141.790000", "121142.790000", "121143.790000", "121144.790000", "121145.790000", "121146.790000", "121147.790000", "121148.790000", "121149.790000", "121150.790000", "121151.790000", "121152.790000", "121153.790000", "121154.790000", "121155.790000", "121156.790000", "121157.790000", "121158.790000", "121159.790000", "121200.790000", "121201.790000", "121202.790000", "121203.790000", "121204.790000", "121205.790000", "121206.790000", "121207.790000", "121208.790000", "121209.790000", "121210.790000", "121211.790000", "121212.790000", "121213.790000", "121214.790000", "121215.790000", "121216.790000", "121217.790000", "121218.790000", "121219.790000", "121220.790000", "121221.790000", "121222.790000", "121223.790000", "121224.790000", "121225.790000", "121226.790000", "121227.790000", "121228.790000", "121229.790000", "121230.790000", "121231.790000", "121232.790000", "121233.790000", "121234.790000", "121235.790000", "121236.790000", "121237.790000", "121238.790000", "121239.790000", "121240.790000", "121241.790000", "121242.790000", "121243.790000", "121244.790000", "121245.790000", "121246.790000", "121247.790000", "121248.790000", "121249.790000", "121250.790000", "121251.790000", "121252.790000", "121253.790000", "121254.790000", "121255.790000", "121256.790000", "121257.790000", "121258.790000", "121259.790000", "121300.790000", "121301.790000", "121302.790000", "121303.790000", "121304.790000", "121305.790000", "121306.790000", "121307.790000", "121308.790000", "121309.790000", "121310.790000", "121311.790000", "121312.790000", "121313.790000", "121314.790000", "121315.790000", "121316.790000", "121317.790000", "121318.790000", "121319.790000", "121320.790000", "121321.790000", "121322.790000", "121323.790000", "121324.790000", "121325.790000", "121326.790000", "121327.790000", "121328.790000", "121329.790000", "121330.790000", "121331.790000", "121332.790000", "121333.790000", "121334.790000", "121335.790000", "121336.790000", "121337.790000", "121338.790000", "121339.790000", "121340.790000", "121341.790000", "121342.790000", "121343.790000", "121344.790000", "121345.790000", "121346.790000", "121347.790000", "121348.790000", "121349.790000", "121350.790000", "121351.790000", "121352.790000", "121353.790000", "121354.790000", "121355.790000", "121356.790000", "121357.790000", "121358.790000", "121359.790000", "121400.790000", "121401.790000", "121402.790000", "121403.790000", "121404.790000", "121405.790000", "121406.790000", "121407.790000", "121408.790000", "121409.790000", "121410.790000", "121411.790000", "121412.790000", "121413.790000", "121414.790000", "121415.790000", "121416.790000", "121417.790000", "121418.790000", "121419.790000", "121420.790000", "121421.790000", "121422.790000", "121423.790000", "121424.790000", "121425.790000", "121426.790000", "121427.790000", "121428.790000", "121429.790000", "121430.790000", "121431.790000", "121432.790000", "121433.790000", "121434.790000", "121435.790000", "121436.790000", "121437.790000", "121438.790000", "121439.790000", "121440.790000", "121441.790000", "121442.790000", "121443.790000", "121444.790000", "121445.790000", "121446.790000", "121447.790000", "121448.790000", "121449.790000", "121450.790000", "121451.790000", "121452.790000", "121453.790000", "121454.790000", "121455.790000", "121456.790000", "121457.790000", "121458.790000", "121459.790000", "121500.790000", "121501.790000", "121502.790000", "121503.790000", "121504.790000", "121505.790000", "121506.790000", "121507.790000", "121508.790000", "121509.790000", "121510.790000", "121511.790000", "121512.790000", "121513.790000", "121514.790000", "121515.790000", "121516.790000", "121517.790000", "121518.790000", "121519.790000", "121520.790000", "121521.790000", "121522.790000", "121523.790000", "121524.790000", "121525.790000", "121526.790000", "121527.790000", "121528.790000", "121529.790000", "121530.790000", "121531.790000", "121532.790000", "121533.790000", "121534.790000", "121535.790000", "121536.790000", "121537.790000", "121538.790000", "121539.790000", "121540.790000", "121541.790000", "121542.790000", "121543.790000", "121544.790000", "121545.790000", "121546.790000", "121547.790000", "121548.790000", "121549.790000", "121550.790000", "121551.790000", "121552.790000", "121553.790000", "121554.790000", "121555.790000", "121556.790000", "121557.790000", "121558.790000", "121559.790000", "121600.790000", "121601.790000", "121602.790000", "121603.790000", "121604.790000", "121605.790000", "121606.790000", "121607.790000", "121608.790000", "121609.790000", "121610.790000", "121611.790000", "121612.790000", "121613.790000", "121614.790000", "121615.790000", "121616.790000", "121617.790000", "121618.790000", "121619.790000", "121620.790000", "121621.790000", "121622.790000", "121623.790000", "121624.790000", "121625.790000", "121626.790000", "121627.790000", "121628.790000", "121629.790000", "121630.790000", "121631.790000", "121632.790000", "121633.790000", "121634.790000", "121635.790000", "121636.790000", "121637.790000", "121638.790000", "121639.790000", "121640.790000", "121641.790000", "121642.790000", "121643.790000", "121644.790000", "121645.790000", "121646.790000", "121647.790000", "121648.790000", "121649.790000", "121650.790000", "121651.790000", "121652.790000", "121653.790000", "121654.790000", "121655.790000", "121656.790000", "121657.790000", "121658.790000", "121659.790000", "121700.790000", "121701.790000", "121702.790000", "121703.790000", "121704.790000", "121705.790000", "121706.790000", "121707.790000", "121708.790000", "121709.790000"],
      "ContentTime": ["120854.281000", "120855.095000", "120856.086000", "120857.107000", "120858.142000", "120859.115000", "120900.105000", "120901.077000", "120902.062000", "120903.098000", "120904.102000", "120905.080000", "120906.094000", "120907.138000", "120908.087000", "120909.106000", "120910.128000", "120911.109000", "120912.086000", "120913.093000", "120914.100000", "120915.162000", "120916.118000", "120917.094000", "120918.093000", "120919.098000", "120920.106000", "120921.088000", "120922.084000", "120923.101000", "120924.108000", "120925.081000", "120926.136000", "120927.105000", "120928.099000", "120929.085000", "120930.101000", "120931.122000", "120932.094000", "120933.090000", "120934.086000", "120935.103000", "120936.102000", "120937.117000", "120938.090000", "120939.095000", "120940.086000", "120941.100000", "120942.132000", "120943.078000", "120944.075000", "120945.096000", "120946.081000", "120947.090000", "120948.102000", "120949.100000", "120950.088000", "120951.094000", "120952.108000", "120953.102000", "120954.099000", "120955.098000", "120956.099000", "120957.080000", "120958.122000", "120959.082000", "121000.098000", "121001.091000", "121002.119000", "121003.099000", "121004.059000", "121005.070000", "121006.136000", "121007.086000", "121008.089000", "121009.087000", "121010.094000", "121011.136000", "121012.076000", "121013.107000", "121014.107000", "121015.089000", "121016.071000", "121017.074000", "121018.101000", "121019.097000", "121020.078000", "121021.097000", "121022.096000", "121023.078000", "121024.086000", "121025.093000", "121026.102000", "121027.087000", "121028.089000", "121029.103000", "121030.099000", "121031.089000", "121032.066000", "121033.090000", "121034.094000", "121035.099000", "121036.081000", "121037.100000", "121038.090000", "121039.130000", "121040.089000", "121041.132000", "121042.092000", "121043.107000", "121044.081000", "121045.094000", "121046.079000", "121047.097000", "121048.092000", "121049.110000", "121050.112000", "121051.096000", "121052.132000", "121053.100000", "121054.078000", "121055.116000", "121056.099000", "121057.142000", "121058.104000", "121059.095000", "121100.088000", "121101.077000", "121102.123000", "121103.091000", "121104.115000", "121105.100000", "121106.096000", "121107.093000", "121108.097000", "121109.114000", "121110.118000", "121111.126000", "121112.097000", "121113.105000", "121114.138000", "121115.112000", "121116.108000", "121117.130000", "121118.109000", "121119.094000", "121120.156000", "121121.100000", "121122.098000", "121123.079000", "121124.121000", "121125.134000", "121126.107000", "121127.113000", "121128.105000", "121129.083000", "121130.096000", "121131.097000", "121132.092000", "121133.098000", "121134.142000", "121135.083000", "121136.114000", "121137.071000", "121138.091000", "121139.108000", "121140.130000", "121141.092000", "121142.111000", "121143.093000", "121144.095000", "121145.086000", "121146.108000", "121147.079000", "121148.101000", "121149.084000", "121150.106000", "121151.096000", "121152.082000", "121153.097000", "121154.098000", "121155.121000", "121156.122000", "121157.088000", "121158.089000", "121159.114000", "121200.103000", "121201.082000", "121202.086000", "121203.094000", "121204.098000", "121205.146000", "121206.104000", "121207.099000", "121208.088000", "121209.088000", "121210.109000", "121211.129000", "121212.109000", "121213.090000", "121214.093000", "121215.096000", "121216.067000", "121217.112000", "121218.118000", "121219.067000", "121220.088000", "121221.088000", "121222.105000", "121223.117000", "121224.103000", "121225.098000", "121226.087000", "121227.101000", "121228.086000", "121229.094000", "121230.094000", "121231.093000", "121232.143000", "121233.110000", "121234.087000", "121235.106000", "121236.144000", "121237.126000", "121238.087000", "121239.100000", "121240.102000", "121241.076000", "121242.105000", "121243.134000", "121244.077000", "121245.090000", "121246.098000", "121247.093000", "121248.076000", "121249.087000", "121250.122000", "121251.105000", "121252.095000", "121253.098000", "121254.105000", "121255.067000", "121256.104000", "121257.069000", "121258.161000", "121259.099000", "121300.126000", "121301.092000", "121302.070000", "121303.085000", "121304.088000", "121305.109000", "121306.089000", "121307.107000", "121308.092000", "121309.102000", "121310.097000", "121311.071000", "121312.093000", "121313.097000", "121314.093000", "121315.092000", "121316.091000", "121317.116000", "121318.100000", "121319.101000", "121320.101000", "121321.090000", "121322.137000", "121323.090000", "121324.121000", "121325.087000", "121326.069000", "121327.103000", "121328.073000", "121329.111000", "121330.114000", "121331.093000", "121332.055000", "121333.155000", "121334.072000", "121335.098000", "121336.091000", "121337.104000", "121338.091000", "121339.085000", "121340.074000", "121341.099000", "121342.102000", "121343.102000", "121344.118000", "121345.147000", "121346.106000", "121347.085000", "121348.064000", "121349.099000", "121350.116000", "121351.108000", "121352.141000", "121353.088000", "121354.090000", "121355.083000", "121356.078000", "121357.094000", "121358.114000", "121359.125000", "121400.099000", "121401.095000", "121402.129000", "121403.088000", "121404.104000", "121405.119000", "121406.096000", "121407.108000", "121408.125000", "121409.111000", "121410.061000", "121411.095000", "121412.083000", "121413.111000", "121414.095000", "121415.167000", "121416.101000", "121417.118000", "121418.114000", "121419.082000", "121420.106000", "121421.059000", "121422.091000", "121423.113000", "121424.113000", "121425.096000", "121426.106000", "121427.123000", "121428.120000", "121429.118000", "121430.124000", "121431.106000", "121432.134000", "121433.111000", "121434.101000", "121435.099000", "121436.116000", "121437.084000", "121438.108000", "121439.102000", "121440.093000", "121441.126000", "121442.101000", "121443.117000", "121444.108000", "121445.097000", "121446.130000", "121447.088000", "121448.089000", "121449.108000", "121450.106000", "121451.095000", "121452.120000", "121453.073000", "121454.078000", "121455.105000", "121456.093000", "121457.118000", "121458.089000", "121459.083000", "121500.099000", "121501.084000", "121502.085000", "121503.134000", "121504.140000", "121505.151000", "121506.091000", "121507.133000", "121508.097000", "121509.110000", "121510.130000", "121511.067000", "121512.116000", "121513.095000", "121514.105000", "121515.104000", "121516.099000", "121517.098000", "121518.085000", "121519.113000", "121520.076000", "121521.097000", "121522.093000", "121523.097000", "121524.059000", "121525.125000", "121526.147000", "121527.106000", "121528.095000", "121529.105000", "121530.152000", "121531.071000", "121532.082000", "121533.098000", "121534.105000", "121535.102000", "121536.173000", "121537.104000", "121538.183000", "121539.092000", "121540.080000", "121541.104000", "121542.098000", "121543.123000", "121544.127000", "121545.125000", "121546.110000", "121547.090000", "121548.094000", "121549.098000", "121550.095000", "121551.085000", "121552.090000", "121553.100000", "121554.053000", "121555.098000", "121556.072000", "121557.081000", "121558.097000", "121559.152000", "121600.085000", "121601.087000", "121602.123000", "121603.100000", "121604.087000", "121605.112000", "121606.082000", "121607.094000", "121608.082000", "121609.089000", "121610.093000", "121611.101000", "121612.109000", "121613.089000", "121614.080000", "121615.089000", "121616.128000", "121617.125000", "121618.099000", "121619.119000", "121620.105000", "121621.115000", "121622.108000", "121623.083000", "121624.080000", "121625.084000", "121626.099000", "121627.075000", "121628.074000", "121629.094000", "121630.135000", "121631.098000", "121632.095000", "121633.087000", "121634.123000", "121635.104000", "121636.070000", "121637.070000", "121638.101000", "121639.106000", "121640.079000", "121641.132000", "121642.076000", "121643.106000", "121644.091000", "121645.118000", "121646.102000", "121647.085000", "121648.067000", "121649.102000", "121650.078000", "121651.109000", "121652.101000", "121653.108000", "121654.120000", "121655.103000", "121656.079000", "121657.105000", "121658.084000", "121659.098000", "121700.107000", "121701.100000", "121702.100000", "121703.070000", "121704.095000", "121705.090000", "121706.099000", "121707.120000", "121708.108000", "121709.086000", "121710.094000", "121711.089000"],
