{
  "AcquisitionMatrixPE": 96,
  "AcquisitionNumber": 1,
  "AcquisitionTime": "20:03:37.735000",
  "BandwidthPerPixelPhaseEncode": 18.939,
  "BaseResolution": 96,
  "BodyPartExamined": "BRAIN",
  "ConsistencyInfo": "N4_VE11C_LATEST_20160120",
  "ConversionSoftware": "dcm2niix",
  "ConversionSoftwareVersion": "v1.0.20190902",
  "DerivedVendorReportedEchoSpacing": 0.000550011,
  "DeviceSerialNumber": "66112",
  "DwellTime": 2.2e-06,
  "EchoTime": 0.033,
  "EchoTrainLength": 96,
  "EffectiveEchoSpacing": 0.000550011,
  "FlipAngle": 59,
  "ImageOrientationPatientDICOM": [0.998679, 0.0509186, 0.00689211, -0.0507657, 0.998494, -0.0207876],
  "ImageType": [
    "ORIGINAL",
    "PRIMARY",
    "FMRI",
    "NONE",
    "ND",
    "NORM",
    "MOSAIC"
],
  "ImagingFrequency": 123.252,
  "InPlanePhaseEncodingDirectionDICOM": "COL",
  "InstitutionAddress": "Maynard_3_Hanover_NH_US_03755",
  "InstitutionName": "Dartmouth_College_-_PBS",
  "InstitutionalDepartmentName": "Department",
  "MRAcquisitionType": "2D",
  "MagneticFieldStrength": 3,
  "Manufacturer": "Siemens",
  "ManufacturersModelName": "Prisma",
  "Modality": "MR",
  "MultibandAccelerationFactor": 4,
  "PartialFourier": 1,
  "PatientPosition": "HFS",
  "PercentPhaseFOV": 100,
  "PhaseEncodingDirection": "j-",
  "PhaseEncodingSteps": 96,
  "PhaseResolution": 1,
  "PixelBandwidth": 2365,
  "ProcedureStepDescription": "Gobbini_Matteo_1037_budapest",
  "ProtocolName": "func_run-04_task-movie",
  "PulseSequenceDetails": "%SiemensSeq%_ep2d_bold",
  "ReceiveCoilActiveElements": "HEA;HEP",
  "ReceiveCoilName": "Head_32",
  "ReconMatrixPE": 96,
  "RefLinesPE": 12,
  "RepetitionTime": 1,
  "SAR": 0.0404307,
  "ScanOptions": "FS",
  "ScanningSequence": "EP",
  "SequenceName": "_epfid2d1_96",
  "SequenceVariant": "SK",
  "SeriesDescription": "func_run-04_task-movie",
  "SeriesNumber": 29,
  "ShimSetting": [4141, -7691, -7280, 627, 46, 113, 85, 5],
  "SliceThickness": 2.5,
  "SliceTiming": [0.735, 0, 0.49, 0.08, 0.57, 0.1625, 0.6525, 0.325, 0.815, 0.4075, 0.8975, 0.245, 0.735, 0, 0.49, 0.08, 0.57, 0.1625, 0.6525, 0.325, 0.815, 0.4075, 0.8975, 0.245, 0.735, 0, 0.49, 0.08, 0.57, 0.1625, 0.6525, 0.325, 0.815, 0.4075, 0.8975, 0.245, 0.735, 0, 0.49, 0.08, 0.57, 0.1625, 0.6525, 0.325, 0.815, 0.4075, 0.8975, 0.245],
  "SoftwareVersions": "syngo_MR_E11",
  "SpacingBetweenSlices": 2.5,
  "StationName": "AWP66112",
  "TaskName": "movie",
  "TotalReadoutTime": 0.0522511,
  "TxRefAmp": 232.84,
  "dcmmeta_affine": [
    [-2.4966976642608643, -0.12691423296928406, 0.01985051855444908, 126.73210906982422],
    [-0.12729644775390625, 2.4962356090545654, -0.05102555826306343, -102.0367431640625],
    [0.017230279743671417, 0.05196891352534294, 2.4994003772735596, -57.93789291381836],
    [0.0, 0.0, 0.0, 1.0]
],
  "dcmmeta_reorient_transform": [
    [0.0, -1.0, 0.0, 95.0],
    [1.0, 0.0, 0.0, 0.0],
    [0.0, 0.0, 1.0, 0.0],
    [0.0, 0.0, 0.0, 1.0]
],
  "dcmmeta_shape": [96, 96, 48, 618],
  "dcmmeta_slice_dim": 2,
  "dcmmeta_version": 0.6,
  "global": {
    "const": {
      "AccessionNumber": "A001326",
      "AcquisitionMatrix": [96, 0, 0, 96],
      "AngioFlag": "N",
      "BitsAllocated": 16,
      "BitsStored": 12,
      "BodyPartExamined": "BRAIN",
      "Columns": 672,
      "EchoNumbers": 1,
      "EchoTime": 33.0,
      "EchoTrainLength": 96,
      "FlipAngle": 59.0,
      "HighBit": 11,
      "ImageOrientationPatient": [0.99867902617659, 0.05091857680982, 0.0068921122046, -0.0507656949081, 0.99849422698525, -0.0207875659381],
      "ImagePositionPatient": [-797.17285714719, -890.68285210406, -42.996119492537],
      "ImageType": [
        "ORIGINAL",
        "PRIMARY",
        "FMRI",
        "NONE",
        "ND",
        "NORM",
        "MOSAIC"
],
      "ImagedNucleus": "1H",
      "ImagingFrequency": 123.252289,
      "InPlanePhaseEncodingDirection": "COL",
      "MRAcquisitionType": "2D",
      "MagneticFieldStrength": 3.0,
      "Manufacturer": "SIEMENS",
      "ManufacturerModelName": "Prisma",
      "Modality": "MR",
      "NumberOfAverages": 1.0,
      "NumberOfPhaseEncodingSteps": 96,
      "PercentPhaseFieldOfView": 100.0,
      "PercentSampling": 100.0,
      "PerformedProcedureStepStartTime": "191425.810000",
      "PhotometricInterpretation": "MONOCHROME2",
      "PixelBandwidth": 2365.0,
      "PixelRepresentation": 0,
      "PixelSpacing": [2.5, 2.5],
      "ProtocolName": "func_run-04_task-movie",
      "RepetitionTime": 1000.0,
      "Rows": 672,
      "SAR": 0.04043068760126,
      "SamplesPerPixel": 1,
      "ScanOptions": "FS",
      "ScanningSequence": "EP",
      "SequenceName": "*epfid2d1_96",
      "SequenceVariant": "SK",
      "SeriesDescription": "func_run-04_task-movie",
      "SeriesNumber": 29,
      "SeriesTime": "200339.094000",
      "SliceLocation": -54.835125201771,
      "SliceThickness": 2.5,
      "SmallestImagePixelValue": 0,
      "SoftwareVersions": "syngo MR E11",
      "SpacingBetweenSlices": 2.499999964188,
      "SpecificCharacterSet": "ISO_IR 100",
      "StudyID": "1",
      "StudyTime": "191425.741000",
      "TransmitCoilName": "Body",
      "VariableFlipAngleFlag": "N",
      "WindowCenterWidthExplanation": "Algo1",
      "dBdt": 0.0},
    "slices": {}
  },
  "time": {
    "samples": {
      "AcquisitionNumber": [1, 2, 3, 4, 5, 6, 7, 8, 9, 10, 11, 12, 13, 14, 15, 16, 17, 18, 19, 20, 21, 22, 23, 24, 25, 26, 27, 28, 29, 30, 31, 32, 33, 34, 35, 36, 37, 38, 39, 40, 41, 42, 43, 44, 45, 46, 47, 48, 49, 50, 51, 52, 53, 54, 55, 56, 57, 58, 59, 60, 61, 62, 63, 64, 65, 66, 67, 68, 69, 70, 71, 72, 73, 74, 75, 76, 77, 78, 79, 80, 81, 82, 83, 84, 85, 86, 87, 88, 89, 90, 91, 92, 93, 94, 95, 96, 97, 98, 99, 100, 101, 102, 103, 104, 105, 106, 107, 108, 109, 110, 111, 112, 113, 114, 115, 116, 117, 118, 119, 120, 121, 122, 123, 124, 125, 126, 127, 128, 129, 130, 131, 132, 133, 134, 135, 136, 137, 138, 139, 140, 141, 142, 143, 144, 145, 146, 147, 148, 149, 150, 151, 152, 153, 154, 155, 156, 157, 158, 159, 160, 161, 162, 163, 164, 165, 166, 167, 168, 169, 170, 171, 172, 173, 174, 175, 176, 177, 178, 179, 180, 181, 182, 183, 184, 185, 186, 187, 188, 189, 190, 191, 192, 193, 194, 195, 196, 197, 198, 199, 200, 201, 202, 203, 204, 205, 206, 207, 208, 209, 210, 211, 212, 213, 214, 215, 216, 217, 218, 219, 220, 221, 222, 223, 224, 225, 226, 227, 228, 229, 230, 231, 232, 233, 234, 235, 236, 237, 238, 239, 240, 241, 242, 243, 244, 245, 246, 247, 248, 249, 250, 251, 252, 253, 254, 255, 256, 257, 258, 259, 260, 261, 262, 263, 264, 265, 266, 267, 268, 269, 270, 271, 272, 273, 274, 275, 276, 277, 278, 279, 280, 281, 282, 283, 284, 285, 286, 287, 288, 289, 290, 291, 292, 293, 294, 295, 296, 297, 298, 299, 300, 301, 302, 303, 304, 305, 306, 307, 308, 309, 310, 311, 312, 313, 314, 315, 316, 317, 318, 319, 320, 321, 322, 323, 324, 325, 326, 327, 328, 329, 330, 331, 332, 333, 334, 335, 336, 337, 338, 339, 340, 341, 342, 343, 344, 345, 346, 347, 348, 349, 350, 351, 352, 353, 354, 355, 356, 357, 358, 359, 360, 361, 362, 363, 364, 365, 366, 367, 368, 369, 370, 371, 372, 373, 374, 375, 376, 377, 378, 379, 380, 381, 382, 383, 384, 385, 386, 387, 388, 389, 390, 391, 392, 393, 394, 395, 396, 397, 398, 399, 400, 401, 402, 403, 404, 405, 406, 407, 408, 409, 410, 411, 412, 413, 414, 415, 416, 417, 418, 419, 420, 421, 422, 423, 424, 425, 426, 427, 428, 429, 430, 431, 432, 433, 434, 435, 436, 437, 438, 439, 440, 441, 442, 443, 444, 445, 446, 447, 448, 449, 450, 451, 452, 453, 454, 455, 456, 457, 458, 459, 460, 461, 462, 463, 464, 465, 466, 467, 468, 469, 470, 471, 472, 473, 474, 475, 476, 477, 478, 479, 480, 481, 482, 483, 484, 485, 486, 487, 488, 489, 490, 491, 492, 493, 494, 495, 496, 497, 498, 499, 500, 501, 502, 503, 504, 505, 506, 507, 508, 509, 510, 511, 512, 513, 514, 515, 516, 517, 518, 519, 520, 521, 522, 523, 524, 525, 526, 527, 528, 529, 530, 531, 532, 533, 534, 535, 536, 537, 538, 539, 540, 541, 542, 543, 544, 545, 546, 547, 548, 549, 550, 551, 552, 553, 554, 555, 556, 557, 558, 559, 560, 561, 562, 563, 564, 565, 566, 567, 568, 569, 570, 571, 572, 573, 574, 575, 576, 577, 578, 579, 580, 581, 582, 583, 584, 585, 586, 587, 588, 589, 590, 591, 592, 593, 594, 595, 596, 597, 598, 599, 600, 601, 602, 603, 604, 605, 606, 607, 608, 609, 610, 611, 612, 613, 614, 615, 616, 617, 618],
      "AcquisitionTime": ["200337.735000", "200338.735000", "200339.735000", "200340.735000", "200341.735000", "200342.735000", "200343.735000", "200344.735000", "200345.735000", "200346.735000", "200347.735000", "200348.735000", "200349.735000", "200350.735000", "200351.735000", "200352.735000", "200353.735000", "200354.735000", "200355.735000", "200356.735000", "200357.735000", "200358.735000", "200359.735000", "200400.735000", "200401.735000", "200402.735000", "200403.735000", "200404.735000", "200405.735000", "200406.735000", "200407.735000", "200408.735000", "200409.735000", "200410.735000", "200411.735000", "200412.735000", "200413.735000", "200414.735000", "200415.735000", "200416.735000", "200417.735000", "200418.735000", "200419.735000", "200420.735000", "200421.735000", "200422.735000", "200423.735000", "200424.735000", "200425.735000", "200426.735000", "200427.735000", "200428.735000", "200429.735000", "200430.735000", "200431.735000", "200432.735000", "200433.735000", "200434.735000", "200435.735000", "200436.735000", "200437.735000", "200438.735000", "200439.735000", "200440.735000", "200441.735000", "200442.735000", "200443.735000", "200444.735000", "200445.735000", "200446.735000", "200447.735000", "200448.735000", "200449.735000", "200450.735000", "200451.735000", "200452.735000", "200453.735000", "200454.735000", "200455.735000", "200456.735000", "200457.735000", "200458.735000", "200459.735000", "200500.735000", "200501.735000", "200502.735000", "200503.735000", "200504.735000", "200505.735000", "200506.735000", "200507.735000", "200508.735000", "200509.735000", "200510.735000", "200511.735000", "200512.735000", "200513.735000", "200514.735000", "200515.735000", "200516.735000", "200517.735000", "200518.735000", "200519.735000", "200520.735000", "200521.735000", "200522.735000", "200523.735000", "200524.735000", "200525.735000", "200526.735000", "200527.735000", "200528.735000", "200529.735000", "200530.735000", "200531.735000", "200532.735000", "200533.735000", "200534.735000", "200535.735000", "200536.735000", "200537.735000", "200538.735000", "200539.735000", "200540.735000", "200541.735000", "200542.735000", "200543.735000", "200544.735000", "200545.735000", "200546.735000", "200547.735000", "200548.735000", "200549.735000", "200550.735000", "200551.735000", "200552.735000", "200553.735000", "200554.735000", "200555.735000", "200556.735000", "200557.735000", "200558.735000", "200559.735000", "200600.735000", "200601.735000", "200602.735000", "200603.735000", "200604.735000", "200605.735000", "200606.735000", "200607.735000", "200608.735000", "200609.735000", "200610.735000", "200611.735000", "200612.735000", "200613.735000", "200614.735000", "200615.735000", "200616.735000", "200617.735000", "200618.735000", "200619.735000", "200620.735000", "200621.735000", "200622.735000", "200623.735000", "200624.735000", "200625.735000", "200626.735000", "200627.735000", "200628.735000", "200629.735000", "200630.735000", "200631.735000", "200632.735000", "200633.735000", "200634.735000", "200635.735000", "200636.735000", "200637.735000", "200638.735000", "200639.735000", "200640.735000", "200641.735000", "200642.735000", "200643.735000", "200644.735000", "200645.735000", "200646.735000", "200647.735000", "200648.735000", "200649.735000", "200650.735000", "200651.735000", "200652.735000", "200653.735000", "200654.735000", "200655.735000", "200656.735000", "200657.735000", "200658.735000", "200659.735000", "200700.735000", "200701.735000", "200702.735000", "200703.735000", "200704.735000", "200705.735000", "200706.735000", "200707.735000", "200708.735000", "200709.735000", "200710.735000", "200711.735000", "200712.735000", "200713.735000", "200714.735000", "200715.735000", "200716.735000", "200717.735000", "200718.735000", "200719.735000", "200720.735000", "200721.735000", "200722.735000", "200723.735000", "200724.735000", "200725.735000", "200726.735000", "200727.735000", "200728.735000", "200729.735000", "200730.735000", "200731.735000", "200732.735000", "200733.735000", "200734.735000", "200735.735000", "200736.735000", "200737.735000", "200738.735000", "200739.735000", "200740.735000", "200741.735000", "200742.735000", "200743.735000", "200744.735000", "200745.735000", "200746.735000", "200747.735000", "200748.735000", "200749.735000", "200750.735000", "200751.735000", "200752.735000", "200753.735000", "200754.735000", "200755.735000", "200756.735000", "200757.735000", "200758.735000", "200759.735000", "200800.735000", "200801.735000", "200802.735000", "200803.735000", "200804.735000", "200805.735000", "200806.735000", "200807.735000", "200808.735000", "200809.735000", "200810.735000", "200811.735000", "200812.735000", "200813.735000", "200814.735000", "200815.735000", "200816.735000", "200817.735000", "200818.735000", "200819.735000", "200820.735000", "200821.735000", "200822.735000", "200823.735000", "200824.735000", "200825.735000", "200826.735000", "200827.735000", "200828.735000", "200829.735000", "200830.735000", "200831.735000", "200832.735000", "200833.735000", "200834.735000", "200835.735000", "200836.735000", "200837.735000", "200838.735000", "200839.735000", "200840.735000", "200841.735000", "200842.735000", "200843.735000", "200844.735000", "200845.735000", "200846.735000", "200847.735000", "200848.735000", "200849.735000", "200850.735000", "200851.735000", "200852.735000", "200853.735000", "200854.735000", "200855.735000", "200856.735000", "200857.735000", "200858.735000", "200859.735000", "200900.735000", "200901.735000", "200902.735000", "200903.735000", "200904.735000", "200905.735000", "200906.735000", "200907.735000", "200908.735000", "200909.735000", "200910.735000", "200911.735000", "200912.735000", "200913.735000", "200914.735000", "200915.735000", "200916.735000", "200917.735000", "200918.735000", "200919.735000", "200920.735000", "200921.735000", "200922.735000", "200923.735000", "200924.735000", "200925.735000", "200926.735000", "200927.735000", "200928.735000", "200929.735000", "200930.735000", "200931.735000", "200932.735000", "200933.735000", "200934.735000", "200935.735000", "200936.735000", "200937.735000", "200938.735000", "200939.735000", "200940.735000", "200941.735000", "200942.735000", "200943.735000", "200944.735000", "200945.735000", "200946.735000", "200947.735000", "200948.735000", "200949.735000", "200950.735000", "200951.735000", "200952.735000", "200953.735000", "200954.735000", "200955.735000", "200956.735000", "200957.735000", "200958.735000", "200959.735000", "201000.735000", "201001.735000", "201002.735000", "201003.735000", "201004.735000", "201005.735000", "201006.735000", "201007.735000", "201008.735000", "201009.735000", "201010.735000", "201011.735000", "201012.735000", "201013.735000", "201014.735000", "201015.735000", "201016.735000", "201017.735000", "201018.735000", "201019.735000", "201020.735000", "201021.735000", "201022.735000", "201023.735000", "201024.735000", "201025.735000", "201026.735000", "201027.735000", "201028.735000", "201029.735000", "201030.735000", "201031.735000", "201032.735000", "201033.735000", "201034.735000", "201035.735000", "201036.735000", "201037.735000", "201038.735000", "201039.735000", "201040.735000", "201041.735000", "201042.735000", "201043.735000", "201044.735000", "201045.735000", "201046.735000", "201047.735000", "201048.735000", "201049.735000", "201050.735000", "201051.735000", "201052.735000", "201053.735000", "201054.735000", "201055.735000", "201056.735000", "201057.735000", "201058.735000", "201059.735000", "201100.735000", "201101.735000", "201102.735000", "201103.735000", "201104.735000", "201105.735000", "201106.735000", "201107.735000", "201108.735000", "201109.735000", "201110.735000", "201111.735000", "201112.735000", "201113.735000", "201114.735000", "201115.735000", "201116.735000", "201117.735000", "201118.735000", "201119.735000", "201120.735000", "201121.735000", "201122.735000", "201123.735000", "201124.735000", "201125.735000", "201126.735000", "201127.735000", "201128.735000", "201129.735000", "201130.735000", "201131.735000", "201132.735000", "201133.735000", "201134.735000", "201135.735000", "201136.735000", "201137.735000", "201138.735000", "201139.735000", "201140.735000", "201141.735000", "201142.735000", "201143.735000", "201144.735000", "201145.735000", "201146.735000", "201147.735000", "201148.735000", "201149.735000", "201150.735000", "201151.735000", "201152.735000", "201153.735000", "201154.735000", "201155.735000", "201156.735000", "201157.735000", "201158.735000", "201159.735000", "201200.735000", "201201.735000", "201202.735000", "201203.735000", "201204.735000", "201205.735000", "201206.735000", "201207.735000", "201208.735000", "201209.735000", "201210.735000", "201211.735000", "201212.735000", "201213.735000", "201214.735000", "201215.735000", "201216.735000", "201217.735000", "201218.735000", "201219.735000", "201220.735000", "201221.735000", "201222.735000", "201223.735000", "201224.735000", "201225.735000", "201226.735000", "201227.735000", "201228.735000", "201229.735000", "201230.735000", "201231.735000", "201232.735000", "201233.735000", "201234.735000", "201235.735000", "201236.735000", "201237.735000", "201238.735000", "201239.735000", "201240.735000", "201241.735000", "201242.735000", "201243.735000", "201244.735000", "201245.735000", "201246.735000", "201247.735000", "201248.735000", "201249.735000", "201250.735000", "201251.735000", "201252.735000", "201253.735000", "201254.735000", "201255.735000", "201256.735000", "201257.735000", "201258.735000", "201259.735000", "201300.735000", "201301.735000", "201302.735000", "201303.735000", "201304.735000", "201305.735000", "201306.735000", "201307.735000", "201308.735000", "201309.735000", "201310.735000", "201311.735000", "201312.735000", "201313.735000", "201314.735000", "201315.735000", "201316.735000", "201317.735000", "201318.735000", "201319.735000", "201320.735000", "201321.735000", "201322.735000", "201323.735000", "201324.735000", "201325.735000", "201326.735000", "201327.735000", "201328.735000", "201329.735000", "201330.735000", "201331.735000", "201332.735000", "201333.735000", "201334.735000", "201335.735000", "201336.735000", "201337.735000", "201338.735000", "201339.735000", "201340.735000", "201341.735000", "201342.735000", "201343.735000", "201344.735000", "201345.735000", "201346.735000", "201347.735000", "201348.735000", "201349.735000", "201350.735000", "201351.735000", "201352.735000", "201353.735000", "201354.735000"],
      "ContentTime": ["200339.099000", "200339.941000", "200340.917000", "200341.944000", "200342.948000", "200343.933000", "200344.910000", "200345.933000", "200346.982000", "200347.945000", "200349.901000", "200350.213000", "200350.913000", "200351.930000", "200352.976000", "200353.933000", "200354.959000", "200355.911000", "200356.904000", "200357.954000", "200358.957000", "200359.940000", "200400.963000", "200401.933000", "200402.934000", "200403.964000", "200404.974000", "200405.932000", "200406.962000", "200407.969000", "200408.949000", "200409.930000", "200410.961000", "200412.962000", "200413.034000", "200413.946000", "200414.954000", "200415.987000", "200417.201000", "200417.974000", "200418.969000", "200419.937000", "200421.192000", "200421.969000", "200422.962000", "200423.947000", "200426.160000", "200426.291000", "200428.462000", "200428.530000", "200428.959000", "200429.963000", "200430.929000", "200431.938000", "200432.942000", "200433.922000", "200434.942000", "200435.979000", "200436.964000", "200437.943000", "200438.992000", "200439.941000", "200440.961000", "200441.982000", "200442.969000", "200443.954000", "200444.944000", "200445.931000", "200447.097000", "200447.924000", "200448.934000", "200449.917000", "200450.936000", "200451.928000", "200452.941000", "200453.932000", "200454.945000", "200455.973000", "200456.937000", "200457.924000", "200458.922000", "200459.924000", "200500.941000", "200501.932000", "200502.952000", "200503.917000", "200504.938000", "200505.955000", "200506.949000", "200507.962000", "200508.977000", "200509.951000", "200510.923000", "200511.931000", "200513.009000", "200513.930000", "200514.941000", "200515.927000", "200517.117000", "200517.918000", "200518.954000", "200519.952000", "200520.944000", "200521.971000", "200522.960000", "200523.956000", "200524.992000", "200525.953000", "200526.952000", "200527.981000", "200528.949000", "200529.950000", "200531.412000", "200531.929000", "200533.182000", "200533.987000", "200534.964000", "200535.949000", "200536.950000", "200537.951000", "200538.972000", "200539.963000", "200540.947000", "200541.948000", "200542.947000", "200543.956000", "200544.958000", "200545.932000", "200547.428000", "200547.944000", "200548.940000", "200549.945000", "200550.993000", "200551.944000", "200552.961000", "200553.962000", "200554.994000", "200555.941000", "200556.938000", "200557.959000", "200558.953000", "200559.986000", "200600.975000", "200601.952000", "200602.933000", "200603.977000", "200604.939000", "200605.919000", "200606.940000", "200608.073000", "200608.923000", "200609.978000", "200610.928000", "200611.928000", "200612.942000", "200613.940000", "200614.930000", "200616.195000", "200616.948000", "200617.957000", "200619.017000", "200619.989000", "200620.953000", "200621.944000", "200623.449000", "200623.951000", "200624.979000", "200625.961000", "200626.939000", "200627.947000", "200628.926000", "200629.943000", "200630.965000", "200631.953000", "200632.962000", "200633.970000", "200634.953000", "200635.932000", "200636.937000", "200637.969000", "200638.946000", "200639.979000", "200640.950000", "200641.953000", "200642.959000", "200643.971000", "200644.957000", "200645.935000", "200646.982000", "200647.960000", "200648.949000", "200649.932000", "200650.928000", "200651.959000", "200652.959000", "200655.071000", "200655.131000", "200655.960000", "200656.948000", "200657.935000", "200658.932000", "200659.956000", "200700.940000", "200701.931000", "200702.953000", "200703.938000", "200704.946000", "200705.928000", "200706.998000", "200707.940000", "200708.929000", "200709.932000", "200710.993000", "200711.940000", "200712.956000", "200713.953000", "200714.951000", "200715.906000", "200717.006000", "200717.947000", "200718.956000", "200720.149000", "200720.941000", "200721.938000", "200722.956000", "200723.949000", "200724.945000", "200725.935000", "200726.947000", "200727.940000", "200728.956000", "200729.945000", "200730.930000", "200731.967000", "200732.935000", "200733.928000", "200734.943000", "200735.993000", "200736.952000", "200737.934000", "200738.951000", "200739.931000", "200740.938000", "200741.923000", "200742.939000", "200743.932000", "200744.933000", "200746.164000", "200746.919000", "200747.920000", "200748.937000", "200749.946000", "200750.923000", "200751.933000", "200752.935000", "200753.941000", "200754.945000", "200755.944000", "200756.998000", "200757.940000", "200758.947000", "200759.988000", "200800.957000", "200801.906000", "200802.938000", "200803.982000", "200804.947000", "200805.956000", "200806.961000", "200807.980000", "200808.979000", "200809.911000", "200810.967000", "200811.947000", "200812.967000", "200814.023000", "200814.982000", "200815.942000", "200816.901000", "200817.927000", "200818.944000", "200819.926000", "200822.123000", "200822.183000", "200822.975000", "200823.926000", "200824.969000", "200825.932000", "200826.913000", "200827.952000", "200829.111000", "200829.973000", "200830.936000", "200831.972000", "200832.943000", "200833.904000", "200834.942000", "200835.960000", "200836.939000", "200837.935000", "200838.972000", "200839.981000", "200840.973000", "200841.945000", "200842.938000", "200843.955000", "200845.035000", "200845.924000", "200846.974000", "200847.950000", "200848.924000", "200849.943000", "200850.968000", "200851.949000", "200853.010000", "200853.917000", "200854.940000", "200855.947000", "200858.017000", "200858.079000", "200858.948000", "200859.943000", "200900.915000", "200901.968000", "200903.225000", "200903.938000", "200904.928000", "200905.953000", "200906.950000", "200907.957000", "200908.949000", "200909.932000", "200910.933000", "200911.922000", "200912.942000", "200914.665000", "200915.287000", "200915.958000", "200917.097000", "200917.963000", "200919.030000", "200919.952000", "200920.946000", "200921.952000", "200922.987000", "200923.957000", "200924.934000", "200925.954000", "200926.935000", "200927.934000", "200928.939000", "200929.940000", "200930.948000", "200931.969000", "200932.939000", "200933.950000", "200934.944000", "200935.933000", "200937.073000", "200937.928000", "200939.184000", "200939.943000", "200940.938000", "200941.946000", "200942.953000", "200943.944000", "200944.923000", "200945.941000", "200946.949000", "200947.964000", "200949.323000", "200949.956000", "200950.973000", "200951.955000", "200952.944000", "200953.954000", "200954.929000", "200955.935000", "200956.952000", "200957.942000", "200959.340000", "200959.956000", "201000.950000", "201002.979000", "201003.645000", "201004.262000", "201005.003000", "201005.970000", "201006.985000", "201008.017000", "201008.920000", "201009.934000", "201010.934000", "201011.934000", "201012.932000", "201013.935000", "201015.576000", "201015.953000", "201016.959000", "201017.957000", "201018.931000", "201019.935000", "201021.004000", "201021.973000", "201022.922000", "201023.944000", "201024.938000", "201025.949000", "201027.618000", "201028.267000", "201028.929000", "201030.100000", "201030.946000", "201031.941000", "201032.899000", "201033.938000", "201034.939000", "201035.945000", "201036.941000", "201037.920000", "201038.937000", "201039.941000", "201040.933000", "201041.947000", "201042.945000", "201043.930000", "201045.005000", "201045.958000", "201046.955000", "201047.942000", "201048.927000", "201049.959000", "201050.965000", "201052.012000", "201052.950000", "201053.938000", "201054.938000", "201055.921000", "201056.941000", "201057.951000", "201059.001000", "201059.943000", "201100.944000", "201101.955000", "201102.945000", "201103.935000", "201104.938000", "201105.939000", "201106.981000", "201107.957000", "201108.904000", "201109.935000", "201110.976000", "201111.941000", "201112.919000", "201113.906000", "201114.946000", "201115.982000", "201116.931000", "201117.947000", "201118.898000", "201119.957000", "201120.953000", "201121.956000", "201122.938000", "201123.925000", "201124.935000", "201125.935000", "201126.943000", "201127.955000", "201128.952000", "201129.940000", "201130.932000", "201131.929000", "201132.940000", "201133.923000", "201134.966000", "201135.927000", "201136.928000", "201137.927000", "201138.948000", "201139.947000", "201140.953000", "201141.927000", "201142.917000", "201143.977000", "201144.938000", "201145.923000", "201146.915000", "201147.942000", "201148.974000", "201149.933000", "201150.984000", "201151.939000", "201152.941000", "201153.926000", "201154.984000", "201155.977000", "201156.935000", "201157.939000", "201158.913000", "201159.927000", "201200.941000", "201201.938000", "201202.993000", "201203.959000", "201204.932000", "201205.913000", "201206.935000", "201207.898000", "201208.940000", "201209.969000", "201210.900000", "201211.923000", "201212.949000", "201213.965000", "201214.925000", "201215.957000", "201216.980000", "201217.977000", "201218.963000", "201219.958000", "201220.985000", "201221.972000", "201222.925000", "201223.939000", "201224.933000", "201225.967000", "201226.942000", "201227.943000", "201228.929000", "201229.929000", "201230.928000", "201231.944000", "201232.924000", "201233.951000", "201234.941000", "201235.945000", "201236.933000", "201237.950000", "201238.932000", "201239.947000", "201240.956000", "201241.960000", "201242.933000", "201243.958000", "201244.973000", "201245.948000", "201246.929000", "201247.930000", "201248.943000", "201249.955000", "201250.907000", "201251.958000", "201252.923000", "201253.954000", "201254.913000", "201255.927000", "201256.932000", "201257.941000", "201259.011000", "201259.931000", "201300.924000", "201301.946000", "201302.916000", "201303.946000", "201304.936000", "201305.894000", "201306.948000", "201307.942000", "201308.936000", "201309.938000", "201310.937000", "201311.947000", "201312.954000", "201313.936000", "201314.924000", "201315.917000", "201316.948000", "201317.916000", "201318.926000", "201319.931000", "201320.936000", "201321.932000", "201322.922000", "201323.920000", "201324.971000", "201325.979000", "201327.007000", "201327.937000", "201328.932000", "201329.926000", "201330.942000", "201331.936000", "201332.928000", "201333.941000", "201335.012000", "201336.002000", "201336.936000", "201337.918000", "201338.934000", "201339.918000", "201340.943000", "201341.939000", "201342.957000", "201343.939000", "201344.954000", "201346.020000", "201347.057000", "201347.938000", "201348.937000", "201349.951000", "201350.933000", "201351.925000", "201352.944000", "201353.951000", "201354.910000", "201355.984000"],
