{
  "AcquisitionMatrixPE": 96,
  "AcquisitionNumber": 1,
  "AcquisitionTime": "19:45:18.047500",
  "BandwidthPerPixelPhaseEncode": 18.939,
  "BaseResolution": 96,
  "BodyPartExamined": "BRAIN",
  "ConsistencyInfo": "N4_VE11C_LATEST_20160120",
  "ConversionSoftware": "dcm2niix",
  "ConversionSoftwareVersion": "v1.0.20190902",
  "DerivedVendorReportedEchoSpacing": 0.000550011,
  "DeviceSerialNumber": "66112",
  "DwellTime": 2.2e-06,
  "EchoTime": 0.033,
  "EchoTrainLength": 96,
  "EffectiveEchoSpacing": 0.000550011,
  "FlipAngle": 59,
  "ImageOrientationPatientDICOM": [0.998679, 0.0509186, 0.00689211, -0.0507657, 0.998494, -0.0207876],
  "ImageType": [
    "ORIGINAL",
    "PRIMARY",
    "FMRI",
    "NONE",
    "ND",
    "NORM",
    "MOSAIC"
],
  "ImagingFrequency": 123.252,
  "InPlanePhaseEncodingDirectionDICOM": "COL",
  "InstitutionAddress": "Maynard_3_Hanover_NH_US_03755",
  "InstitutionName": "Dartmouth_College_-_PBS",
  "InstitutionalDepartmentName": "Department",
  "MRAcquisitionType": "2D",
  "MagneticFieldStrength": 3,
  "Manufacturer": "Siemens",
  "ManufacturersModelName": "Prisma",
  "Modality": "MR",
  "MultibandAccelerationFactor": 4,
  "PartialFourier": 1,
  "PatientPosition": "HFS",
  "PercentPhaseFOV": 100,
  "PhaseEncodingDirection": "j-",
  "PhaseEncodingSteps": 96,
  "PhaseResolution": 1,
  "PixelBandwidth": 2365,
  "ProcedureStepDescription": "Gobbini_Matteo_1037_budapest",
  "ProtocolName": "func_run-02_task-movie",
  "PulseSequenceDetails": "%SiemensSeq%_ep2d_bold",
  "ReceiveCoilActiveElements": "HEA;HEP",
  "ReceiveCoilName": "Head_32",
  "ReconMatrixPE": 96,
  "RefLinesPE": 12,
  "RepetitionTime": 1,
  "SAR": 0.0403799,
  "ScanOptions": "FS",
  "ScanningSequence": "EP",
  "SequenceName": "_epfid2d1_96",
  "SequenceVariant": "SK",
  "SeriesDescription": "func_run-02_task-movie",
  "SeriesNumber": 15,
  "ShimSetting": [4141, -7691, -7280, 627, 46, 113, 85, 5],
  "SliceThickness": 2.5,
  "SliceTiming": [0.735, 0, 0.49, 0.0825, 0.5725, 0.1625, 0.6525, 0.3275, 0.8175, 0.4075, 0.8975, 0.245, 0.735, 0, 0.49, 0.0825, 0.5725, 0.1625, 0.6525, 0.3275, 0.8175, 0.4075, 0.8975, 0.245, 0.735, 0, 0.49, 0.0825, 0.5725, 0.1625, 0.6525, 0.3275, 0.8175, 0.4075, 0.8975, 0.245, 0.735, 0, 0.49, 0.0825, 0.5725, 0.1625, 0.6525, 0.3275, 0.8175, 0.4075, 0.8975, 0.245],
  "SoftwareVersions": "syngo_MR_E11",
  "SpacingBetweenSlices": 2.5,
  "StationName": "AWP66112",
  "TaskName": "movie",
  "TotalReadoutTime": 0.0522511,
  "TxRefAmp": 232.84,
  "dcmmeta_affine": [
    [-2.4966976642608643, -0.12691423296928406, 0.01985051855444908, 126.73210906982422],
    [-0.12729644775390625, 2.4962356090545654, -0.05102555826306343, -102.0367431640625],
    [0.017230279743671417, 0.05196891352534294, 2.4994003772735596, -57.93789291381836],
    [0.0, 0.0, 0.0, 1.0]
],
  "dcmmeta_reorient_transform": [
    [0.0, -1.0, 0.0, 95.0],
    [1.0, 0.0, 0.0, 0.0],
    [0.0, 0.0, 1.0, 0.0],
    [0.0, 0.0, 0.0, 1.0]
],
  "dcmmeta_shape": [96, 96, 48, 498],
  "dcmmeta_slice_dim": 2,
  "dcmmeta_version": 0.6,
  "global": {
    "const": {
      "AccessionNumber": "A001326",
      "AcquisitionMatrix": [96, 0, 0, 96],
      "AngioFlag": "N",
      "BitsAllocated": 16,
      "BitsStored": 12,
      "BodyPartExamined": "BRAIN",
      "Columns": 672,
      "EchoNumbers": 1,
      "EchoTime": 33.0,
      "EchoTrainLength": 96,
      "FlipAngle": 59.0,
      "HighBit": 11,
      "ImageOrientationPatient": [0.99867902617659, 0.05091857680982, 0.0068921122046, -0.0507656949081, 0.99849422698525, -0.0207875659381],
      "ImagePositionPatient": [-797.17285714719, -890.68285210406, -42.996119492537],
      "ImageType": [
        "ORIGINAL",
        "PRIMARY",
        "FMRI",
        "NONE",
        "ND",
        "NORM",
        "MOSAIC"
],
      "ImagedNucleus": "1H",
      "ImagingFrequency": 123.25228,
      "InPlanePhaseEncodingDirection": "COL",
      "MRAcquisitionType": "2D",
      "MagneticFieldStrength": 3.0,
      "Manufacturer": "SIEMENS",
      "ManufacturerModelName": "Prisma",
      "Modality": "MR",
      "NumberOfAverages": 1.0,
      "NumberOfPhaseEncodingSteps": 96,
      "PercentPhaseFieldOfView": 100.0,
      "PercentSampling": 100.0,
      "PerformedProcedureStepStartTime": "191425.810000",
      "PhotometricInterpretation": "MONOCHROME2",
      "PixelBandwidth": 2365.0,
      "PixelRepresentation": 0,
      "PixelSpacing": [2.5, 2.5],
      "ProtocolName": "func_run-02_task-movie",
      "RepetitionTime": 1000.0,
      "Rows": 672,
      "SAR": 0.04037989390121,
      "SamplesPerPixel": 1,
      "ScanOptions": "FS",
      "ScanningSequence": "EP",
      "SequenceName": "*epfid2d1_96",
      "SequenceVariant": "SK",
      "SeriesDescription": "func_run-02_task-movie",
      "SeriesNumber": 15,
      "SeriesTime": "194519.710000",
      "SliceLocation": -54.835125201771,
      "SliceThickness": 2.5,
      "SmallestImagePixelValue": 0,
      "SoftwareVersions": "syngo MR E11",
      "SpacingBetweenSlices": 2.499999964188,
      "SpecificCharacterSet": "ISO_IR 100",
      "StudyID": "1",
      "StudyTime": "191425.741000",
      "TransmitCoilName": "Body",
      "VariableFlipAngleFlag": "N",
      "WindowCenterWidthExplanation": "Algo1",
      "dBdt": 0.0},
    "slices": {}
  },
  "time": {
    "samples": {
      "AcquisitionNumber": [1, 2, 3, 4, 5, 6, 7, 8, 9, 10, 11, 12, 13, 14, 15, 16, 17, 18, 19, 20, 21, 22, 23, 24, 25, 26, 27, 28, 29, 30, 31, 32, 33, 34, 35, 36, 37, 38, 39, 40, 41, 42, 43, 44, 45, 46, 47, 48, 49, 50, 51, 52, 53, 54, 55, 56, 57, 58, 59, 60, 61, 62, 63, 64, 65, 66, 67, 68, 69, 70, 71, 72, 73, 74, 75, 76, 77, 78, 79, 80, 81, 82, 83, 84, 85, 86, 87, 88, 89, 90, 91, 92, 93, 94, 95, 96, 97, 98, 99, 100, 101, 102, 103, 104, 105, 106, 107, 108, 109, 110, 111, 112, 113, 114, 115, 116, 117, 118, 119, 120, 121, 122, 123, 124, 125, 126, 127, 128, 129, 130, 131, 132, 133, 134, 135, 136, 137, 138, 139, 140, 141, 142, 143, 144, 145, 146, 147, 148, 149, 150, 151, 152, 153, 154, 155, 156, 157, 158, 159, 160, 161, 162, 163, 164, 165, 166, 167, 168, 169, 170, 171, 172, 173, 174, 175, 176, 177, 178, 179, 180, 181, 182, 183, 184, 185, 186, 187, 188, 189, 190, 191, 192, 193, 194, 195, 196, 197, 198, 199, 200, 201, 202, 203, 204, 205, 206, 207, 208, 209, 210, 211, 212, 213, 214, 215, 216, 217, 218, 219, 220, 221, 222, 223, 224, 225, 226, 227, 228, 229, 230, 231, 232, 233, 234, 235, 236, 237, 238, 239, 240, 241, 242, 243, 244, 245, 246, 247, 248, 249, 250, 251, 252, 253, 254, 255, 256, 257, 258, 259, 260, 261, 262, 263, 264, 265, 266, 267, 268, 269, 270, 271, 272, 273, 274, 275, 276, 277, 278, 279, 280, 281, 282, 283, 284, 285, 286, 287, 288, 289, 290, 291, 292, 293, 294, 295, 296, 297, 298, 299, 300, 301, 302, 303, 304, 305, 306, 307, 308, 309, 310, 311, 312, 313, 314, 315, 316, 317, 318, 319, 320, 321, 322, 323, 324, 325, 326, 327, 328, 329, 330, 331, 332, 333, 334, 335, 336, 337, 338, 339, 340, 341, 342, 343, 344, 345, 346, 347, 348, 349, 350, 351, 352, 353, 354, 355, 356, 357, 358, 359, 360, 361, 362, 363, 364, 365, 366, 367, 368, 369, 370, 371, 372, 373, 374, 375, 376, 377, 378, 379, 380, 381, 382, 383, 384, 385, 386, 387, 388, 389, 390, 391, 392, 393, 394, 395, 396, 397, 398, 399, 400, 401, 402, 403, 404, 405, 406, 407, 408, 409, 410, 411, 412, 413, 414, 415, 416, 417, 418, 419, 420, 421, 422, 423, 424, 425, 426, 427, 428, 429, 430, 431, 432, 433, 434, 435, 436, 437, 438, 439, 440, 441, 442, 443, 444, 445, 446, 447, 448, 449, 450, 451, 452, 453, 454, 455, 456, 457, 458, 459, 460, 461, 462, 463, 464, 465, 466, 467, 468, 469, 470, 471, 472, 473, 474, 475, 476, 477, 478, 479, 480, 481, 482, 483, 484, 485, 486, 487, 488, 489, 490, 491, 492, 493, 494, 495, 496, 497, 498],
      "AcquisitionTime": ["194518.047500", "194519.047500", "194520.047500", "194521.047500", "194522.047500", "194523.047500", "194524.047500", "194525.047500", "194526.047500", "194527.047500", "194528.047500", "194529.047500", "194530.047500", "194531.047500", "194532.047500", "194533.047500", "194534.047500", "194535.047500", "194536.047500", "194537.047500", "194538.047500", "194539.047500", "194540.047500", "194541.047500", "194542.047500", "194543.047500", "194544.047500", "194545.047500", "194546.047500", "194547.047500", "194548.047500", "194549.047500", "194550.047500", "194551.047500", "194552.047500", "194553.047500", "194554.047500", "194555.047500", "194556.047500", "194557.047500", "194558.047500", "194559.047500", "194600.047500", "194601.047500", "194602.047500", "194603.047500", "194604.047500", "194605.047500", "194606.047500", "194607.047500", "194608.047500", "194609.047500", "194610.047500", "194611.047500", "194612.047500", "194613.047500", "194614.047500", "194615.047500", "194616.047500", "194617.047500", "194618.047500", "194619.047500", "194620.047500", "194621.047500", "194622.047500", "194623.047500", "194624.047500", "194625.047500", "194626.047500", "194627.047500", "194628.047500", "194629.047500", "194630.047500", "194631.047500", "194632.047500", "194633.047500", "194634.047500", "194635.047500", "194636.047500", "194637.047500", "194638.047500", "194639.047500", "194640.047500", "194641.047500", "194642.047500", "194643.047500", "194644.047500", "194645.047500", "194646.047500", "194647.047500", "194648.047500", "194649.047500", "194650.047500", "194651.047500", "194652.047500", "194653.047500", "194654.047500", "194655.047500", "194656.047500", "194657.047500", "194658.047500", "194659.047500", "194700.047500", "194701.047500", "194702.047500", "194703.047500", "194704.047500", "194705.047500", "194706.047500", "194707.047500", "194708.047500", "194709.047500", "194710.047500", "194711.047500", "194712.047500", "194713.047500", "194714.047500", "194715.047500", "194716.047500", "194717.047500", "194718.047500", "194719.047500", "194720.047500", "194721.047500", "194722.047500", "194723.047500", "194724.047500", "194725.047500", "194726.047500", "194727.047500", "194728.047500", "194729.047500", "194730.047500", "194731.047500", "194732.047500", "194733.047500", "194734.047500", "194735.047500", "194736.047500", "194737.047500", "194738.047500", "194739.047500", "194740.047500", "194741.047500", "194742.047500", "194743.047500", "194744.047500", "194745.047500", "194746.047500", "194747.047500", "194748.047500", "194749.047500", "194750.047500", "194751.047500", "194752.047500", "194753.047500", "194754.047500", "194755.047500", "194756.047500", "194757.047500", "194758.047500", "194759.047500", "194800.047500", "194801.047500", "194802.047500", "194803.047500", "194804.047500", "194805.047500", "194806.047500", "194807.047500", "194808.047500", "194809.047500", "194810.047500", "194811.047500", "194812.047500", "194813.047500", "194814.047500", "194815.047500", "194816.047500", "194817.047500", "194818.047500", "194819.047500", "194820.047500", "194821.047500", "194822.047500", "194823.047500", "194824.047500", "194825.047500", "194826.047500", "194827.047500", "194828.047500", "194829.047500", "194830.047500", "194831.047500", "194832.047500", "194833.047500", "194834.047500", "194835.047500", "194836.047500", "194837.047500", "194838.047500", "194839.047500", "194840.047500", "194841.047500", "194842.047500", "194843.047500", "194844.047500", "194845.047500", "194846.047500", "194847.047500", "194848.047500", "194849.047500", "194850.047500", "194851.047500", "194852.047500", "194853.047500", "194854.047500", "194855.047500", "194856.047500", "194857.047500", "194858.047500", "194859.047500", "194900.047500", "194901.047500", "194902.047500", "194903.047500", "194904.047500", "194905.047500", "194906.047500", "194907.047500", "194908.047500", "194909.047500", "194910.047500", "194911.047500", "194912.047500", "194913.047500", "194914.047500", "194915.047500", "194916.047500", "194917.047500", "194918.047500", "194919.047500", "194920.047500", "194921.047500", "194922.047500", "194923.047500", "194924.047500", "194925.047500", "194926.047500", "194927.047500", "194928.047500", "194929.047500", "194930.047500", "194931.047500", "194932.047500", "194933.047500", "194934.047500", "194935.047500", "194936.047500", "194937.047500", "194938.047500", "194939.047500", "194940.047500", "194941.047500", "194942.047500", "194943.047500", "194944.047500", "194945.047500", "194946.047500", "194947.047500", "194948.047500", "194949.047500", "194950.047500", "194951.047500", "194952.047500", "194953.047500", "194954.047500", "194955.047500", "194956.047500", "194957.047500", "194958.047500", "194959.047500", "195000.047500", "195001.047500", "195002.047500", "195003.047500", "195004.047500", "195005.047500", "195006.047500", "195007.047500", "195008.047500", "195009.047500", "195010.047500", "195011.047500", "195012.047500", "195013.047500", "195014.047500", "195015.047500", "195016.047500", "195017.047500", "195018.047500", "195019.047500", "195020.047500", "195021.047500", "195022.047500", "195023.047500", "195024.047500", "195025.047500", "195026.047500", "195027.047500", "195028.047500", "195029.047500", "195030.047500", "195031.047500", "195032.047500", "195033.047500", "195034.047500", "195035.047500", "195036.047500", "195037.047500", "195038.047500", "195039.047500", "195040.047500", "195041.047500", "195042.047500", "195043.047500", "195044.047500", "195045.047500", "195046.047500", "195047.047500", "195048.047500", "195049.047500", "195050.047500", "195051.047500", "195052.047500", "195053.047500", "195054.047500", "195055.047500", "195056.047500", "195057.047500", "195058.047500", "195059.047500", "195100.047500", "195101.047500", "195102.047500", "195103.047500", "195104.047500", "195105.047500", "195106.047500", "195107.047500", "195108.047500", "195109.047500", "195110.047500", "195111.047500", "195112.047500", "195113.047500", "195114.047500", "195115.047500", "195116.047500", "195117.047500", "195118.047500", "195119.047500", "195120.047500", "195121.047500", "195122.047500", "195123.047500", "195124.047500", "195125.047500", "195126.047500", "195127.047500", "195128.047500", "195129.047500", "195130.047500", "195131.047500", "195132.047500", "195133.047500", "195134.047500", "195135.047500", "195136.047500", "195137.047500", "195138.047500", "195139.047500", "195140.047500", "195141.047500", "195142.047500", "195143.047500", "195144.047500", "195145.047500", "195146.047500", "195147.047500", "195148.047500", "195149.047500", "195150.047500", "195151.047500", "195152.047500", "195153.047500", "195154.047500", "195155.047500", "195156.047500", "195157.047500", "195158.047500", "195159.047500", "195200.047500", "195201.047500", "195202.047500", "195203.047500", "195204.047500", "195205.047500", "195206.047500", "195207.047500", "195208.047500", "195209.047500", "195210.047500", "195211.047500", "195212.047500", "195213.047500", "195214.047500", "195215.047500", "195216.047500", "195217.047500", "195218.047500", "195219.047500", "195220.047500", "195221.047500", "195222.047500", "195223.047500", "195224.047500", "195225.047500", "195226.047500", "195227.047500", "195228.047500", "195229.047500", "195230.047500", "195231.047500", "195232.047500", "195233.047500", "195234.047500", "195235.047500", "195236.047500", "195237.047500", "195238.047500", "195239.047500", "195240.047500", "195241.047500", "195242.047500", "195243.047500", "195244.047500", "195245.047500", "195246.047500", "195247.047500", "195248.047500", "195249.047500", "195250.047500", "195251.047500", "195252.047500", "195253.047500", "195254.047500", "195255.047500", "195256.047500", "195257.047500", "195258.047500", "195259.047500", "195300.047500", "195301.047500", "195302.047500", "195303.047500", "195304.047500", "195305.047500", "195306.047500", "195307.047500", "195308.047500", "195309.047500", "195310.047500", "195311.047500", "195312.047500", "195313.047500", "195314.047500", "195315.047500", "195316.047500", "195317.047500", "195318.047500", "195319.047500", "195320.047500", "195321.047500", "195322.047500", "195323.047500", "195324.047500", "195325.047500", "195326.047500", "195327.047500", "195328.047500", "195329.047500", "195330.047500", "195331.047500", "195332.047500", "195333.047500", "195334.047500", "195335.047500"],
      "ContentTime": ["194519.714000", "194520.500000", "194521.529000", "194522.527000", "194523.504000", "194524.536000", "194525.534000", "194526.503000", "194527.504000", "194528.542000", "194529.502000", "194530.503000", "194531.502000", "194532.535000", "194533.514000", "194534.545000", "194535.508000", "194536.478000", "194537.552000", "194538.485000", "194539.481000", "194540.492000", "194541.525000", "194542.522000", "194543.495000", "194544.496000", "194545.495000", "194546.501000", "194547.501000", "194548.518000", "194549.495000", "194550.545000", "194551.497000", "194552.500000", "194553.520000", "194554.515000", "194555.517000", "194556.522000", "194557.534000", "194558.484000", "194559.517000", "194600.500000", "194601.484000", "194602.533000", "194603.540000", "194604.539000", "194605.519000", "194606.518000", "194607.501000", "194608.517000", "194609.503000", "194610.501000", "194611.508000", "194612.511000", "194613.586000", "194614.493000", "194615.513000", "194616.526000", "194617.550000", "194618.531000", "194619.501000", "194620.494000", "194621.509000", "194622.513000", "194623.509000", "194624.513000", "194625.504000", "194626.513000", "194627.503000", "194628.503000", "194629.519000", "194630.533000", "194631.482000", "194632.474000", "194633.492000", "194634.542000", "194635.512000", "194636.497000", "194637.507000", "194638.505000", "194639.525000", "194640.527000", "194641.484000", "194642.511000", "194643.493000", "194644.509000", "194645.503000", "194646.482000", "194647.575000", "194648.562000", "194649.540000", "194650.612000", "194651.501000", "194652.497000", "194653.504000", "194654.487000", "194655.500000", "194656.502000", "194657.527000", "194658.499000", "194659.516000", "194700.535000", "194701.550000", "194702.522000", "194703.514000", "194704.488000", "194705.494000", "194706.485000", "194707.513000", "194708.534000", "194709.532000", "194710.528000", "194711.533000", "194712.503000", "194713.549000", "194714.533000", "194715.499000", "194716.501000", "194717.500000", "194718.509000", "194719.553000", "194720.515000", "194721.506000", "194722.505000", "194723.542000", "194724.498000", "194725.522000", "194726.530000", "194727.533000", "194728.517000", "194729.495000", "194730.509000", "194731.502000", "194732.517000", "194733.516000", "194734.530000", "194735.526000", "194736.554000", "194737.515000", "194738.485000", "194739.546000", "194740.524000", "194741.534000", "194742.529000", "194743.509000", "194744.520000", "194745.509000", "194746.512000", "194747.513000", "194748.504000", "194749.512000", "194750.518000", "194751.509000", "194752.537000", "194753.490000", "194754.505000", "194755.516000", "194756.463000", "194757.502000", "194758.510000", "194759.518000", "194800.578000", "194801.506000", "194802.550000", "194803.507000", "194804.526000", "194805.523000", "194806.519000", "194807.507000", "194808.494000", "194809.526000", "194810.510000", "194811.523000", "194812.524000", "194813.493000", "194814.515000", "194815.501000", "194816.553000", "194817.510000", "194818.532000", "194819.497000", "194820.597000", "194821.508000", "194822.518000", "194823.520000", "194824.507000", "194825.549000", "194826.532000", "194827.537000", "194828.526000", "194829.507000", "194830.530000", "194831.501000", "194832.503000", "194833.509000", "194834.541000", "194835.534000", "194836.515000", "194837.503000", "194838.512000", "194839.526000", "194840.477000", "194841.489000", "194842.520000", "194843.505000", "194844.509000", "194845.512000", "194846.497000", "194847.515000", "194848.530000", "194849.510000", "194850.564000", "194851.518000", "194852.522000", "194853.578000", "194854.523000", "194855.517000", "194856.516000", "194857.512000", "194858.517000", "194859.490000", "194900.503000", "194901.531000", "194902.504000", "194903.481000", "194904.490000", "194905.514000", "194906.481000", "194907.498000", "194908.504000", "194909.499000", "194910.476000", "194911.539000", "194912.506000", "194913.530000", "194914.504000", "194915.516000", "194916.529000", "194917.524000", "194918.550000", "194919.514000", "194920.519000", "194921.526000", "194922.538000", "194923.522000", "194924.494000", "194925.519000", "194926.515000", "194927.508000", "194928.531000", "194929.532000", "194930.505000", "194931.507000", "194932.519000", "194933.506000", "194934.485000", "194935.523000", "194936.531000", "194937.535000", "194938.500000", "194939.496000", "194940.485000", "194941.504000", "194942.504000", "194943.508000", "194944.504000", "194945.513000", "194946.538000", "194947.518000", "194948.497000", "194949.555000", "194950.515000", "194951.498000", "194952.514000", "194953.504000", "194954.505000", "194955.508000", "194956.547000", "194957.498000", "194958.506000", "194959.519000", "195000.517000", "195001.545000", "195002.527000", "195003.518000", "195004.497000", "195005.514000", "195006.532000", "195007.513000", "195008.493000", "195009.509000", "195010.542000", "195011.519000", "195012.551000", "195013.531000", "195014.505000", "195015.493000", "195016.503000", "195017.503000", "195018.519000", "195019.506000", "195020.488000", "195021.519000", "195022.528000", "195023.483000", "195024.497000", "195025.502000", "195026.499000", "195027.558000", "195028.502000", "195029.557000", "195030.521000", "195031.535000", "195032.479000", "195033.511000", "195034.524000", "195035.514000", "195036.508000", "195037.498000", "195038.494000", "195039.478000", "195040.499000", "195041.503000", "195042.517000", "195043.524000", "195044.522000", "195045.509000", "195046.482000", "195047.496000", "195048.516000", "195049.522000", "195050.497000", "195051.483000", "195052.487000", "195053.517000", "195054.505000", "195055.518000", "195056.513000", "195057.507000", "195058.474000", "195059.510000", "195100.510000", "195101.533000", "195102.540000", "195103.481000", "195104.506000", "195105.537000", "195106.508000", "195107.495000", "195108.508000", "195109.501000", "195110.467000", "195111.518000", "195112.501000", "195113.496000", "195114.512000", "195115.520000", "195116.504000", "195117.508000", "195118.508000", "195119.508000", "195120.521000", "195121.509000", "195122.508000", "195123.492000", "195124.515000", "195125.512000", "195126.481000", "195127.512000", "195128.489000", "195129.508000", "195130.501000", "195131.516000", "195132.526000", "195133.477000", "195134.488000", "195135.480000", "195136.489000", "195137.472000", "195138.462000", "195139.510000", "195140.510000", "195141.490000", "195142.493000", "195143.480000", "195144.489000", "195145.503000", "195146.529000", "195147.492000", "195148.494000", "195149.522000", "195150.510000", "195151.498000", "195152.489000", "195153.474000", "195154.523000", "195155.505000", "195156.524000", "195157.499000", "195158.512000", "195159.509000", "195200.540000", "195201.504000", "195202.501000", "195203.516000", "195204.541000", "195205.500000", "195206.495000", "195207.513000", "195208.505000", "195209.509000", "195210.539000", "195211.586000", "195212.489000", "195213.479000", "195214.537000", "195215.535000", "195216.492000", "195217.491000", "195218.503000", "195219.501000", "195220.509000", "195221.495000", "195222.493000", "195223.506000", "195224.504000", "195225.495000", "195226.519000", "195227.507000", "195228.510000", "195229.480000", "195230.508000", "195231.519000", "195232.505000", "195233.512000", "195234.516000", "195235.478000", "195236.494000", "195237.517000", "195238.517000", "195239.463000", "195240.491000", "195241.476000", "195242.504000", "195243.502000", "195244.519000", "195245.523000", "195246.533000", "195247.537000", "195248.589000", "195249.501000", "195250.503000", "195251.467000", "195252.468000", "195253.520000", "195254.482000", "195255.530000", "195256.508000", "195257.511000", "195258.508000", "195259.484000", "195300.546000", "195301.540000", "195302.510000", "195303.490000", "195304.518000", "195305.518000", "195306.556000", "195307.499000", "195308.529000", "195309.528000", "195310.509000", "195311.506000", "195312.481000", "195313.490000", "195314.489000", "195315.488000", "195316.516000", "195317.512000", "195318.515000", "195319.491000", "195320.495000", "195321.501000", "195322.516000", "195323.485000", "195324.516000", "195325.519000", "195326.492000", "195327.507000", "195328.504000", "195329.504000", "195330.490000", "195331.515000", "195332.541000", "195333.501000", "195334.510000", "195335.505000", "195336.535000"],
