{
  "AcquisitionMatrixPE": 96,
  "AcquisitionNumber": 1,
  "AcquisitionTime": "19:54:12.220000",
  "BandwidthPerPixelPhaseEncode": 18.939,
  "BaseResolution": 96,
  "BodyPartExamined": "BRAIN",
  "ConsistencyInfo": "N4_VE11C_LATEST_20160120",
  "ConversionSoftware": "dcm2niix",
  "ConversionSoftwareVersion": "v1.0.20190902",
  "DerivedVendorReportedEchoSpacing": 0.000550011,
  "DeviceSerialNumber": "66112",
  "DwellTime": 2.2e-06,
  "EchoTime": 0.033,
  "EchoTrainLength": 96,
  "EffectiveEchoSpacing": 0.000550011,
  "FlipAngle": 59,
  "ImageOrientationPatientDICOM": [0.998679, 0.0509186, 0.00689211, -0.0507657, 0.998494, -0.0207876],
  "ImageType": [
    "ORIGINAL",
    "PRIMARY",
    "FMRI",
    "NONE",
    "ND",
    "NORM",
    "MOSAIC"
],
  "ImagingFrequency": 123.252,
  "InPlanePhaseEncodingDirectionDICOM": "COL",
  "InstitutionAddress": "Maynard_3_Hanover_NH_US_03755",
  "InstitutionName": "Dartmouth_College_-_PBS",
  "InstitutionalDepartmentName": "Department",
  "MRAcquisitionType": "2D",
  "MagneticFieldStrength": 3,
  "Manufacturer": "Siemens",
  "ManufacturersModelName": "Prisma",
  "Modality": "MR",
  "MultibandAccelerationFactor": 4,
  "PartialFourier": 1,
  "PatientPosition": "HFS",
  "PercentPhaseFOV": 100,
  "PhaseEncodingDirection": "j-",
  "PhaseEncodingSteps": 96,
  "PhaseResolution": 1,
  "PixelBandwidth": 2365,
  "ProcedureStepDescription": "Gobbini_Matteo_1037_budapest",
  "ProtocolName": "func_run-03_task-movie",
  "PulseSequenceDetails": "%SiemensSeq%_ep2d_bold",
  "ReceiveCoilActiveElements": "HEA;HEP",
  "ReceiveCoilName": "Head_32",
  "ReconMatrixPE": 96,
  "RefLinesPE": 12,
  "RepetitionTime": 1,
  "SAR": 0.0403979,
  "ScanOptions": "FS",
  "ScanningSequence": "EP",
  "SequenceName": "_epfid2d1_96",
  "SequenceVariant": "SK",
  "SeriesDescription": "func_run-03_task-movie",
  "SeriesNumber": 22,
  "ShimSetting": [4141, -7691, -7280, 627, 46, 113, 85, 5],
  "SliceThickness": 2.5,
  "SliceTiming": [0.735, 0, 0.49, 0.08, 0.57, 0.1625, 0.6525, 0.325, 0.815, 0.4075, 0.8975, 0.245, 0.735, 0, 0.49, 0.08, 0.57, 0.1625, 0.6525, 0.325, 0.815, 0.4075, 0.8975, 0.245, 0.735, 0, 0.49, 0.08, 0.57, 0.1625, 0.6525, 0.325, 0.815, 0.4075, 0.8975, 0.245, 0.735, 0, 0.49, 0.08, 0.57, 0.1625, 0.6525, 0.325, 0.815, 0.4075, 0.8975, 0.245],
  "SoftwareVersions": "syngo_MR_E11",
  "SpacingBetweenSlices": 2.5,
  "StationName": "AWP66112",
  "TaskName": "movie",
  "TotalReadoutTime": 0.0522511,
  "TxRefAmp": 232.84,
  "dcmmeta_affine": [
    [-2.4966976642608643, -0.12691423296928406, 0.01985051855444908, 126.73210906982422],
    [-0.12729644775390625, 2.4962356090545654, -0.05102555826306343, -102.0367431640625],
    [0.017230279743671417, 0.05196891352534294, 2.4994003772735596, -57.93789291381836],
    [0.0, 0.0, 0.0, 1.0]
],
  "dcmmeta_reorient_transform": [
    [0.0, -1.0, 0.0, 95.0],
    [1.0, 0.0, 0.0, 0.0],
    [0.0, 0.0, 1.0, 0.0],
    [0.0, 0.0, 0.0, 1.0]
],
  "dcmmeta_shape": [96, 96, 48, 535],
  "dcmmeta_slice_dim": 2,
  "dcmmeta_version": 0.6,
  "global": {
    "const": {
      "AccessionNumber": "A001326",
      "AcquisitionMatrix": [96, 0, 0, 96],
      "AngioFlag": "N",
      "BitsAllocated": 16,
      "BitsStored": 12,
      "BodyPartExamined": "BRAIN",
      "Columns": 672,
      "EchoNumbers": 1,
      "EchoTime": 33.0,
      "EchoTrainLength": 96,
      "FlipAngle": 59.0,
      "HighBit": 11,
      "ImageOrientationPatient": [0.99867902617659, 0.05091857680982, 0.0068921122046, -0.0507656949081, 0.99849422698525, -0.0207875659381],
      "ImagePositionPatient": [-797.17285714719, -890.68285210406, -42.996119492537],
      "ImageType": [
        "ORIGINAL",
        "PRIMARY",
        "FMRI",
        "NONE",
        "ND",
        "NORM",
        "MOSAIC"
],
      "ImagedNucleus": "1H",
      "ImagingFrequency": 123.252285,
      "InPlanePhaseEncodingDirection": "COL",
      "MRAcquisitionType": "2D",
      "MagneticFieldStrength": 3.0,
      "Manufacturer": "SIEMENS",
      "ManufacturerModelName": "Prisma",
      "Modality": "MR",
      "NumberOfAverages": 1.0,
      "NumberOfPhaseEncodingSteps": 96,
      "PercentPhaseFieldOfView": 100.0,
      "PercentSampling": 100.0,
      "PerformedProcedureStepStartTime": "191425.810000",
      "PhotometricInterpretation": "MONOCHROME2",
      "PixelBandwidth": 2365.0,
      "PixelRepresentation": 0,
      "PixelSpacing": [2.5, 2.5],
      "ProtocolName": "func_run-03_task-movie",
      "RepetitionTime": 1000.0,
      "Rows": 672,
      "SAR": 0.04039794513501,
      "SamplesPerPixel": 1,
      "ScanOptions": "FS",
      "ScanningSequence": "EP",
      "SequenceName": "*epfid2d1_96",
      "SequenceVariant": "SK",
      "SeriesDescription": "func_run-03_task-movie",
      "SeriesNumber": 22,
      "SeriesTime": "195413.527000",
      "SliceLocation": -54.835125201771,
      "SliceThickness": 2.5,
      "SmallestImagePixelValue": 0,
      "SoftwareVersions": "syngo MR E11",
      "SpacingBetweenSlices": 2.499999964188,
      "SpecificCharacterSet": "ISO_IR 100",
      "StudyID": "1",
      "StudyTime": "191425.741000",
      "TransmitCoilName": "Body",
      "VariableFlipAngleFlag": "N",
      "WindowCenterWidthExplanation": "Algo1",
      "dBdt": 0.0},
    "slices": {}
  },
  "time": {
    "samples": {
      "AcquisitionNumber": [1, 2, 3, 4, 5, 6, 7, 8, 9, 10, 11, 12, 13, 14, 15, 16, 17, 18, 19, 20, 21, 22, 23, 24, 25, 26, 27, 28, 29, 30, 31, 32, 33, 34, 35, 36, 37, 38, 39, 40, 41, 42, 43, 44, 45, 46, 47, 48, 49, 50, 51, 52, 53, 54, 55, 56, 57, 58, 59, 60, 61, 62, 63, 64, 65, 66, 67, 68, 69, 70, 71, 72, 73, 74, 75, 76, 77, 78, 79, 80, 81, 82, 83, 84, 85, 86, 87, 88, 89, 90, 91, 92, 93, 94, 95, 96, 97, 98, 99, 100, 101, 102, 103, 104, 105, 106, 107, 108, 109, 110, 111, 112, 113, 114, 115, 116, 117, 118, 119, 120, 121, 122, 123, 124, 125, 126, 127, 128, 129, 130, 131, 132, 133, 134, 135, 136, 137, 138, 139, 140, 141, 142, 143, 144, 145, 146, 147, 148, 149, 150, 151, 152, 153, 154, 155, 156, 157, 158, 159, 160, 161, 162, 163, 164, 165, 166, 167, 168, 169, 170, 171, 172, 173, 174, 175, 176, 177, 178, 179, 180, 181, 182, 183, 184, 185, 186, 187, 188, 189, 190, 191, 192, 193, 194, 195, 196, 197, 198, 199, 200, 201, 202, 203, 204, 205, 206, 207, 208, 209, 210, 211, 212, 213, 214, 215, 216, 217, 218, 219, 220, 221, 222, 223, 224, 225, 226, 227, 228, 229, 230, 231, 232, 233, 234, 235, 236, 237, 238, 239, 240, 241, 242, 243, 244, 245, 246, 247, 248, 249, 250, 251, 252, 253, 254, 255, 256, 257, 258, 259, 260, 261, 262, 263, 264, 265, 266, 267, 268, 269, 270, 271, 272, 273, 274, 275, 276, 277, 278, 279, 280, 281, 282, 283, 284, 285, 286, 287, 288, 289, 290, 291, 292, 293, 294, 295, 296, 297, 298, 299, 300, 301, 302, 303, 304, 305, 306, 307, 308, 309, 310, 311, 312, 313, 314, 315, 316, 317, 318, 319, 320, 321, 322, 323, 324, 325, 326, 327, 328, 329, 330, 331, 332, 333, 334, 335, 336, 337, 338, 339, 340, 341, 342, 343, 344, 345, 346, 347, 348, 349, 350, 351, 352, 353, 354, 355, 356, 357, 358, 359, 360, 361, 362, 363, 364, 365, 366, 367, 368, 369, 370, 371, 372, 373, 374, 375, 376, 377, 378, 379, 380, 381, 382, 383, 384, 385, 386, 387, 388, 389, 390, 391, 392, 393, 394, 395, 396, 397, 398, 399, 400, 401, 402, 403, 404, 405, 406, 407, 408, 409, 410, 411, 412, 413, 414, 415, 416, 417, 418, 419, 420, 421, 422, 423, 424, 425, 426, 427, 428, 429, 430, 431, 432, 433, 434, 435, 436, 437, 438, 439, 440, 441, 442, 443, 444, 445, 446, 447, 448, 449, 450, 451, 452, 453, 454, 455, 456, 457, 458, 459, 460, 461, 462, 463, 464, 465, 466, 467, 468, 469, 470, 471, 472, 473, 474, 475, 476, 477, 478, 479, 480, 481, 482, 483, 484, 485, 486, 487, 488, 489, 490, 491, 492, 493, 494, 495, 496, 497, 498, 499, 500, 501, 502, 503, 504, 505, 506, 507, 508, 509, 510, 511, 512, 513, 514, 515, 516, 517, 518, 519, 520, 521, 522, 523, 524, 525, 526, 527, 528, 529, 530, 531, 532, 533, 534, 535],
      "AcquisitionTime": ["195412.220000", "195413.220000", "195414.220000", "195415.220000", "195416.220000", "195417.220000", "195418.220000", "195419.220000", "195420.220000", "195421.220000", "195422.220000", "195423.220000", "195424.220000", "195425.220000", "195426.220000", "195427.220000", "195428.220000", "195429.220000", "195430.220000", "195431.220000", "195432.220000", "195433.220000", "195434.220000", "195435.220000", "195436.220000", "195437.220000", "195438.220000", "195439.220000", "195440.220000", "195441.220000", "195442.220000", "195443.220000", "195444.220000", "195445.220000", "195446.220000", "195447.220000", "195448.220000", "195449.220000", "195450.220000", "195451.220000", "195452.220000", "195453.220000", "195454.220000", "195455.220000", "195456.220000", "195457.220000", "195458.220000", "195459.220000", "195500.220000", "195501.220000", "195502.220000", "195503.220000", "195504.220000", "195505.220000", "195506.220000", "195507.220000", "195508.220000", "195509.220000", "195510.220000", "195511.220000", "195512.220000", "195513.220000", "195514.220000", "195515.220000", "195516.220000", "195517.220000", "195518.220000", "195519.220000", "195520.220000", "195521.220000", "195522.220000", "195523.220000", "195524.220000", "195525.220000", "195526.220000", "195527.220000", "195528.220000", "195529.220000", "195530.220000", "195531.220000", "195532.220000", "195533.220000", "195534.220000", "195535.220000", "195536.220000", "195537.220000", "195538.220000", "195539.220000", "195540.220000", "195541.220000", "195542.220000", "195543.220000", "195544.220000", "195545.220000", "195546.220000", "195547.220000", "195548.220000", "195549.220000", "195550.220000", "195551.220000", "195552.220000", "195553.220000", "195554.220000", "195555.220000", "195556.220000", "195557.220000", "195558.220000", "195559.220000", "195600.220000", "195601.220000", "195602.220000", "195603.220000", "195604.220000", "195605.220000", "195606.220000", "195607.220000", "195608.220000", "195609.220000", "195610.220000", "195611.220000", "195612.220000", "195613.220000", "195614.220000", "195615.220000", "195616.220000", "195617.220000", "195618.220000", "195619.220000", "195620.220000", "195621.220000", "195622.220000", "195623.220000", "195624.220000", "195625.220000", "195626.220000", "195627.220000", "195628.220000", "195629.220000", "195630.220000", "195631.220000", "195632.220000", "195633.220000", "195634.220000", "195635.220000", "195636.220000", "195637.220000", "195638.220000", "195639.220000", "195640.220000", "195641.220000", "195642.220000", "195643.220000", "195644.220000", "195645.220000", "195646.220000", "195647.220000", "195648.220000", "195649.220000", "195650.220000", "195651.220000", "195652.220000", "195653.220000", "195654.220000", "195655.220000", "195656.220000", "195657.220000", "195658.220000", "195659.220000", "195700.220000", "195701.220000", "195702.220000", "195703.220000", "195704.220000", "195705.220000", "195706.220000", "195707.220000", "195708.220000", "195709.220000", "195710.220000", "195711.220000", "195712.220000", "195713.220000", "195714.220000", "195715.220000", "195716.220000", "195717.220000", "195718.220000", "195719.220000", "195720.220000", "195721.220000", "195722.220000", "195723.220000", "195724.220000", "195725.220000", "195726.220000", "195727.220000", "195728.220000", "195729.220000", "195730.220000", "195731.220000", "195732.220000", "195733.220000", "195734.220000", "195735.220000", "195736.220000", "195737.220000", "195738.220000", "195739.220000", "195740.220000", "195741.220000", "195742.220000", "195743.220000", "195744.220000", "195745.220000", "195746.220000", "195747.220000", "195748.220000", "195749.220000", "195750.220000", "195751.220000", "195752.220000", "195753.220000", "195754.220000", "195755.220000", "195756.220000", "195757.220000", "195758.220000", "195759.220000", "195800.220000", "195801.220000", "195802.220000", "195803.220000", "195804.220000", "195805.220000", "195806.220000", "195807.220000", "195808.220000", "195809.220000", "195810.220000", "195811.220000", "195812.220000", "195813.220000", "195814.220000", "195815.220000", "195816.220000", "195817.220000", "195818.220000", "195819.220000", "195820.220000", "195821.220000", "195822.220000", "195823.220000", "195824.220000", "195825.220000", "195826.220000", "195827.220000", "195828.220000", "195829.220000", "195830.220000", "195831.220000", "195832.220000", "195833.220000", "195834.220000", "195835.220000", "195836.220000", "195837.220000", "195838.220000", "195839.220000", "195840.220000", "195841.220000", "195842.220000", "195843.220000", "195844.220000", "195845.220000", "195846.220000", "195847.220000", "195848.220000", "195849.220000", "195850.220000", "195851.220000", "195852.220000", "195853.220000", "195854.220000", "195855.220000", "195856.220000", "195857.220000", "195858.220000", "195859.220000", "195900.220000", "195901.220000", "195902.220000", "195903.220000", "195904.220000", "195905.220000", "195906.220000", "195907.220000", "195908.220000", "195909.220000", "195910.220000", "195911.220000", "195912.220000", "195913.220000", "195914.220000", "195915.220000", "195916.220000", "195917.220000", "195918.220000", "195919.220000", "195920.220000", "195921.220000", "195922.220000", "195923.220000", "195924.220000", "195925.220000", "195926.220000", "195927.220000", "195928.220000", "195929.220000", "195930.220000", "195931.220000", "195932.220000", "195933.220000", "195934.220000", "195935.220000", "195936.220000", "195937.220000", "195938.220000", "195939.220000", "195940.220000", "195941.220000", "195942.220000", "195943.220000", "195944.220000", "195945.220000", "195946.220000", "195947.220000", "195948.220000", "195949.220000", "195950.220000", "195951.220000", "195952.220000", "195953.220000", "195954.220000", "195955.220000", "195956.220000", "195957.220000", "195958.220000", "195959.220000", "200000.220000", "200001.220000", "200002.220000", "200003.220000", "200004.220000", "200005.220000", "200006.220000", "200007.220000", "200008.220000", "200009.220000", "200010.220000", "200011.220000", "200012.220000", "200013.220000", "200014.220000", "200015.220000", "200016.220000", "200017.220000", "200018.220000", "200019.220000", "200020.220000", "200021.220000", "200022.220000", "200023.220000", "200024.220000", "200025.220000", "200026.220000", "200027.220000", "200028.220000", "200029.220000", "200030.220000", "200031.220000", "200032.220000", "200033.220000", "200034.220000", "200035.220000", "200036.220000", "200037.220000", "200038.220000", "200039.220000", "200040.220000", "200041.220000", "200042.220000", "200043.220000", "200044.220000", "200045.220000", "200046.220000", "200047.220000", "200048.220000", "200049.220000", "200050.220000", "200051.220000", "200052.220000", "200053.220000", "200054.220000", "200055.220000", "200056.220000", "200057.220000", "200058.220000", "200059.220000", "200100.220000", "200101.220000", "200102.220000", "200103.220000", "200104.220000", "200105.220000", "200106.220000", "200107.220000", "200108.220000", "200109.220000", "200110.220000", "200111.220000", "200112.220000", "200113.220000", "200114.220000", "200115.220000", "200116.220000", "200117.220000", "200118.220000", "200119.220000", "200120.220000", "200121.220000", "200122.220000", "200123.220000", "200124.220000", "200125.220000", "200126.220000", "200127.220000", "200128.220000", "200129.220000", "200130.220000", "200131.220000", "200132.220000", "200133.220000", "200134.220000", "200135.220000", "200136.220000", "200137.220000", "200138.220000", "200139.220000", "200140.220000", "200141.220000", "200142.220000", "200143.220000", "200144.220000", "200145.220000", "200146.220000", "200147.220000", "200148.220000", "200149.220000", "200150.220000", "200151.220000", "200152.220000", "200153.220000", "200154.220000", "200155.220000", "200156.220000", "200157.220000", "200158.220000", "200159.220000", "200200.220000", "200201.220000", "200202.220000", "200203.220000", "200204.220000", "200205.220000", "200206.220000", "200207.220000", "200208.220000", "200209.220000", "200210.220000", "200211.220000", "200212.220000", "200213.220000", "200214.220000", "200215.220000", "200216.220000", "200217.220000", "200218.220000", "200219.220000", "200220.220000", "200221.220000", "200222.220000", "200223.220000", "200224.220000", "200225.220000", "200226.220000", "200227.220000", "200228.220000", "200229.220000", "200230.220000", "200231.220000", "200232.220000", "200233.220000", "200234.220000", "200235.220000", "200236.220000", "200237.220000", "200238.220000", "200239.220000", "200240.220000", "200241.220000", "200242.220000", "200243.220000", "200244.220000", "200245.220000", "200246.220000", "200247.220000", "200248.220000", "200249.220000", "200250.220000", "200251.220000", "200252.220000", "200253.220000", "200254.220000", "200255.220000", "200256.220000", "200257.220000", "200258.220000", "200259.220000", "200300.220000", "200301.220000", "200302.220000", "200303.220000", "200304.220000", "200305.220000", "200306.220000"],
      "ContentTime": ["195413.531000", "195414.373000", "195415.399000", "195416.368000", "195417.377000", "195418.382000", "195419.364000", "195420.378000", "195421.397000", "195422.387000", "195423.356000", "195424.364000", "195425.373000", "195426.381000", "195427.389000", "195428.393000", "195429.377000", "195430.345000", "195431.379000", "195432.394000", "195433.359000", "195434.340000", "195435.364000", "195436.368000", "195437.367000", "195438.384000", "195439.378000", "195440.360000", "195441.378000", "195442.355000", "195443.390000", "195444.439000", "195445.348000", "195446.365000", "195447.389000", "195448.347000", "195449.430000", "195450.377000", "195451.423000", "195452.348000", "195453.411000", "195454.350000", "195455.369000", "195456.361000", "195457.372000", "195458.410000", "195459.362000", "195500.370000", "195501.362000", "195502.365000", "195503.362000", "195504.363000", "195505.357000", "195506.394000", "195507.363000", "195508.392000", "195509.439000", "195510.365000", "195511.354000", "195512.354000", "195513.369000", "195514.360000", "195515.369000", "195516.365000", "195517.368000", "195518.344000", "195519.378000", "195520.367000", "195521.367000", "195522.359000", "195523.346000", "195524.374000", "195525.357000", "195526.366000", "195527.369000", "195528.363000", "195529.315000", "195530.348000", "195531.350000", "195532.357000", "195533.357000", "195534.358000", "195535.395000", "195536.397000", "195537.395000", "195538.369000", "195539.347000", "195540.390000", "195541.373000", "195542.399000", "195543.402000", "195544.392000", "195545.371000", "195546.366000", "195547.422000", "195548.396000", "195549.386000", "195550.368000", "195551.353000", "195552.364000", "195553.385000", "195554.387000", "195555.396000", "195556.373000", "195557.369000", "195558.384000", "195559.389000", "195600.428000", "195601.390000", "195602.368000", "195603.385000", "195604.369000", "195605.394000", "195606.364000", "195607.365000", "195608.372000", "195609.362000", "195610.393000", "195611.395000", "195612.364000", "195613.350000", "195614.422000", "195615.384000", "195616.382000", "195617.427000", "195618.350000", "195619.353000", "195620.369000", "195621.374000", "195622.374000", "195623.373000", "195624.376000", "195625.366000", "195626.366000", "195627.374000", "195628.409000", "195629.371000", "195630.349000", "195631.391000", "195632.390000", "195633.384000", "195634.419000", "195635.370000", "195636.364000", "195637.381000", "195638.358000", "195639.408000", "195640.378000", "195641.361000", "195642.382000", "195643.366000", "195644.361000", "195645.364000", "195646.381000", "195647.364000", "195648.392000", "195649.368000", "195650.384000", "195651.389000", "195652.381000", "195653.393000", "195654.376000", "195655.427000", "195656.366000", "195657.374000", "195658.369000", "195659.343000", "195700.379000", "195701.424000", "195702.379000", "195703.348000", "195704.347000", "195705.434000", "195706.373000", "195707.371000", "195708.375000", "195709.370000", "195710.378000", "195711.389000", "195712.389000", "195713.377000", "195714.369000", "195715.364000", "195716.375000", "195717.380000", "195718.346000", "195719.349000", "195720.373000", "195721.390000", "195722.432000", "195723.366000", "195724.381000", "195725.407000", "195726.374000", "195727.497000", "195728.368000", "195729.363000", "195730.372000", "195731.364000", "195732.372000", "195733.376000", "195734.371000", "195735.350000", "195736.369000", "195737.368000", "195738.363000", "195739.357000", "195740.371000", "195741.378000", "195742.365000", "195743.373000", "195744.420000", "195745.365000", "195746.382000", "195747.358000", "195748.388000", "195749.393000", "195750.367000", "195751.399000", "195752.364000", "195753.380000", "195754.365000", "195755.354000", "195756.396000", "195757.367000", "195758.363000", "195759.402000", "195800.363000", "195801.368000", "195802.349000", "195803.367000", "195804.342000", "195805.361000", "195806.370000", "195807.375000", "195808.390000", "195809.366000", "195810.367000", "195811.360000", "195812.372000", "195813.388000", "195814.400000", "195815.361000", "195816.365000", "195817.367000", "195818.386000", "195819.428000", "195820.368000", "195821.364000", "195822.339000", "195823.388000", "195824.376000", "195825.376000", "195826.366000", "195827.340000", "195828.349000", "195829.362000", "195830.413000", "195831.410000", "195832.352000", "195833.368000", "195834.381000", "195835.372000", "195836.374000", "195837.390000", "195838.352000", "195839.379000", "195840.408000", "195841.372000", "195842.370000", "195843.383000", "195844.357000", "195845.350000", "195846.344000", "195847.410000", "195848.421000", "195849.370000", "195850.363000", "195851.371000", "195852.378000", "195853.378000", "195854.377000", "195855.366000", "195856.374000", "195857.398000", "195858.359000", "195859.361000", "195900.360000", "195901.356000", "195902.356000", "195903.370000", "195904.338000", "195905.359000", "195906.416000", "195907.378000", "195908.366000", "195909.367000", "195910.369000", "195911.363000", "195912.365000", "195913.381000", "195914.445000", "195915.375000", "195916.370000", "195917.365000", "195918.378000", "195919.370000", "195920.421000", "195921.369000", "195922.402000", "195923.362000", "195924.383000", "195925.352000", "195926.393000", "195927.378000", "195928.360000", "195929.378000", "195930.366000", "195931.372000", "195932.361000", "195933.351000", "195934.409000", "195935.383000", "195936.354000", "195937.384000", "195938.385000", "195939.359000", "195940.344000", "195941.367000", "195942.365000", "195943.369000", "195944.336000", "195945.356000", "195946.397000", "195947.388000", "195948.386000", "195949.361000", "195950.379000", "195951.377000", "195952.365000", "195953.400000", "195954.373000", "195955.363000", "195956.382000", "195957.388000", "195958.358000", "195959.366000", "200000.368000", "200001.370000", "200002.384000", "200003.366000", "200004.351000", "200005.370000", "200006.371000", "200007.366000", "200008.359000", "200009.366000", "200010.347000", "200011.341000", "200012.372000", "200013.368000", "200014.345000", "200015.373000", "200016.351000", "200017.358000", "200018.408000", "200019.359000", "200020.358000", "200021.383000", "200022.354000", "200023.333000", "200024.353000", "200025.369000", "200026.372000", "200027.325000", "200028.359000", "200029.349000", "200030.408000", "200031.400000", "200032.388000", "200033.379000", "200034.390000", "200035.372000", "200036.396000", "200037.355000", "200038.348000", "200039.362000", "200040.352000", "200041.375000", "200042.366000", "200043.377000", "200044.372000", "200045.321000", "200046.375000", "200047.371000", "200048.345000", "200049.367000", "200050.360000", "200051.338000", "200052.383000", "200053.338000", "200054.351000", "200055.375000", "200056.369000", "200057.361000", "200058.360000", "200059.354000", "200100.393000", "200101.388000", "200102.329000", "200103.386000", "200104.362000", "200105.382000", "200106.385000", "200107.367000", "200108.375000", "200109.344000", "200110.503000", "200111.389000", "200112.376000", "200113.375000", "200114.661000", "200115.417000", "200116.346000", "200117.364000", "200118.373000", "200119.379000", "200120.346000", "200121.364000", "200122.372000", "200123.372000", "200125.124000", "200125.372000", "200126.371000", "200127.367000", "200128.381000", "200129.357000", "200130.335000", "200131.367000", "200132.370000", "200133.399000", "200134.372000", "200135.368000", "200136.380000", "200137.354000", "200138.368000", "200139.366000", "200140.355000", "200141.364000", "200142.391000", "200143.397000", "200144.366000", "200145.395000", "200146.385000", "200147.389000", "200148.371000", "200149.368000", "200150.380000", "200151.366000", "200152.359000", "200153.357000", "200154.333000", "200156.029000", "200156.359000", "200157.366000", "200158.381000", "200159.366000", "200200.352000", "200201.363000", "200202.363000", "200203.349000", "200204.367000", "200205.365000", "200206.376000", "200207.365000", "200208.362000", "200209.357000", "200210.340000", "200211.356000", "200212.387000", "200213.358000", "200214.361000", "200215.377000", "200216.403000", "200217.370000", "200218.350000", "200219.372000", "200220.365000", "200221.400000", "200222.408000", "200223.361000", "200224.351000", "200225.373000", "200226.350000", "200227.346000", "200228.398000", "200229.371000", "200230.459000", "200231.409000", "200232.434000", "200233.651000", "200234.420000", "200235.416000", "200236.435000", "200237.416000", "200238.387000", "200239.450000", "200240.411000", "200241.399000", "200242.437000", "200243.443000", "200244.531000", "200245.400000", "200246.436000", "200250.122000", "200250.254000", "200250.388000", "200250.533000", "200251.414000", "200252.425000", "200253.423000", "200254.417000", "200255.415000", "200256.402000", "200257.868000", "200300.440000", "200300.642000", "200300.768000", "200301.427000", "200302.780000", "200303.411000", "200304.453000", "200305.461000", "200306.433000", "200307.404000"],
