{
  "AcquisitionMatrixPE": 96,
  "AcquisitionNumber": 1,
  "AcquisitionTime": "21:05:47.367500",
  "BandwidthPerPixelPhaseEncode": 18.939,
  "BaseResolution": 96,
  "BodyPartExamined": "BRAIN",
  "ConsistencyInfo": "N4_VE11C_LATEST_20160120",
  "ConversionSoftware": "dcm2niix",
  "ConversionSoftwareVersion": "v1.0.20190902",
  "DerivedVendorReportedEchoSpacing": 0.000550011,
  "DeviceSerialNumber": "66112",
  "DwellTime": 2.2e-06,
  "EchoTime": 0.033,
  "EchoTrainLength": 96,
  "EffectiveEchoSpacing": 0.000550011,
  "FlipAngle": 59,
  "ImageOrientationPatientDICOM": [0.997916, 0.0452447, -0.0460085, -0.0489808, 0.995294, -0.083613],
  "ImageType": [
    "ORIGINAL",
    "PRIMARY",
    "FMRI",
    "NONE",
    "ND",
    "NORM",
    "MOSAIC"
],
  "ImagingFrequency": 123.252,
  "InPlanePhaseEncodingDirectionDICOM": "COL",
  "InstitutionAddress": "Maynard_3_Hanover_NH_US_03755",
  "InstitutionName": "Dartmouth_College_-_PBS",
  "InstitutionalDepartmentName": "Department",
  "MRAcquisitionType": "2D",
  "MagneticFieldStrength": 3,
  "Manufacturer": "Siemens",
  "ManufacturersModelName": "Prisma",
  "Modality": "MR",
  "MultibandAccelerationFactor": 4,
  "PartialFourier": 1,
  "PatientPosition": "HFS",
  "PercentPhaseFOV": 100,
  "PhaseEncodingDirection": "j-",
  "PhaseEncodingSteps": 96,
  "PhaseResolution": 1,
  "PixelBandwidth": 2365,
  "ProcedureStepDescription": "Gobbini_Matteo_1037_budapest",
  "ProtocolName": "func_run-02_task-movie",
  "PulseSequenceDetails": "%SiemensSeq%_ep2d_bold",
  "ReceiveCoilActiveElements": "HEA;HEP",
  "ReceiveCoilName": "Head_32",
  "ReconMatrixPE": 96,
  "RefLinesPE": 12,
  "RepetitionTime": 1,
  "SAR": 0.0518507,
  "ScanOptions": "FS",
  "ScanningSequence": "EP",
  "SequenceName": "_epfid2d1_96",
  "SequenceVariant": "SK",
  "SeriesDescription": "func_run-02_task-movie",
  "SeriesNumber": 15,
  "ShimSetting": [4125, -7699, -7366, 663, 13, -145, 58, 89],
  "SliceThickness": 2.5,
  "SliceTiming": [0.735, 0, 0.49, 0.0825, 0.5725, 0.165, 0.655, 0.3275, 0.8175, 0.41, 0.9, 0.245, 0.735, 0, 0.49, 0.0825, 0.5725, 0.165, 0.655, 0.3275, 0.8175, 0.41, 0.9, 0.245, 0.735, 0, 0.49, 0.0825, 0.5725, 0.165, 0.655, 0.3275, 0.8175, 0.41, 0.9, 0.245, 0.735, 0, 0.49, 0.0825, 0.5725, 0.165, 0.655, 0.3275, 0.8175, 0.41, 0.9, 0.245],
  "SoftwareVersions": "syngo_MR_E11",
  "SpacingBetweenSlices": 2.5,
  "StationName": "AWP66112",
  "TaskName": "movie",
  "TotalReadoutTime": 0.0522511,
  "TxRefAmp": 271.651,
  "dcmmeta_affine": [
    [-2.4947898387908936, -0.12245197594165802, -0.10502239316701889, 130.5638885498047],
    [-0.11311182379722595, 2.488234519958496, -0.2142307460308075, -100.74993896484375],
    [-0.11502132564783096, 0.2090325653553009, 2.48858904838562, -103.25031280517578],
    [0.0, 0.0, 0.0, 1.0]
],
  "dcmmeta_reorient_transform": [
    [0.0, -1.0, 0.0, 95.0],
    [1.0, 0.0, 0.0, 0.0],
    [0.0, 0.0, 1.0, 0.0],
    [0.0, 0.0, 0.0, 1.0]
],
  "dcmmeta_shape": [96, 96, 48, 498],
  "dcmmeta_slice_dim": 2,
  "dcmmeta_version": 0.6,
  "global": {
    "const": {
      "AccessionNumber": "A001332",
      "AcquisitionMatrix": [96, 0, 0, 96],
      "AngioFlag": "N",
      "BitsAllocated": 16,
      "BitsStored": 12,
      "BodyPartExamined": "BRAIN",
      "Columns": 672,
      "EchoNumbers": 1,
      "EchoTime": 33.0,
      "EchoTrainLength": 96,
      "FlipAngle": 59.0,
      "HighBit": 11,
      "ImageOrientationPatient": [0.99791589303334, 0.04524472835718, -0.0460085316801, -0.0489807911709, 0.99529379804064, -0.0836130233762],
      "ImagePositionPatient": [-802.16422761079, -884.82007953562, 9.9352983859],
      "ImageType": [
        "ORIGINAL",
        "PRIMARY",
        "FMRI",
        "NONE",
        "ND",
        "NORM",
        "MOSAIC"
],
      "ImagedNucleus": "1H",
      "ImagingFrequency": 123.252346,
      "InPlanePhaseEncodingDirection": "COL",
      "MRAcquisitionType": "2D",
      "MagneticFieldStrength": 3.0,
      "Manufacturer": "SIEMENS",
      "ManufacturerModelName": "Prisma",
      "Modality": "MR",
      "NumberOfAverages": 1.0,
      "NumberOfPhaseEncodingSteps": 96,
      "PercentPhaseFieldOfView": 100.0,
      "PercentSampling": 100.0,
      "PerformedProcedureStepStartTime": "203808.729000",
      "PhotometricInterpretation": "MONOCHROME2",
      "PixelBandwidth": 2365.0,
      "PixelRepresentation": 0,
      "PixelSpacing": [2.5, 2.5],
      "ProtocolName": "func_run-02_task-movie",
      "RepetitionTime": 1000.0,
      "Rows": 672,
      "SAR": 0.05185068883436,
      "SamplesPerPixel": 1,
      "ScanOptions": "FS",
      "ScanningSequence": "EP",
      "SequenceName": "*epfid2d1_96",
      "SequenceVariant": "SK",
      "SeriesDescription": "func_run-02_task-movie",
      "SeriesNumber": 15,
      "SeriesTime": "210548.424000",
      "SliceLocation": -99.630400156061,
      "SliceThickness": 2.5,
      "SmallestImagePixelValue": 0,
      "SoftwareVersions": "syngo MR E11",
      "SpacingBetweenSlices": 2.4999999702916,
      "SpecificCharacterSet": "ISO_IR 100",
      "StudyID": "1",
      "StudyTime": "203808.668000",
      "TransmitCoilName": "Body",
      "VariableFlipAngleFlag": "N",
      "WindowCenterWidthExplanation": "Algo1",
      "dBdt": 0.0},
    "slices": {}
  },
  "time": {
    "samples": {
      "AcquisitionNumber": [1, 2, 3, 4, 5, 6, 7, 8, 9, 10, 11, 12, 13, 14, 15, 16, 17, 18, 19, 20, 21, 22, 23, 24, 25, 26, 27, 28, 29, 30, 31, 32, 33, 34, 35, 36, 37, 38, 39, 40, 41, 42, 43, 44, 45, 46, 47, 48, 49, 50, 51, 52, 53, 54, 55, 56, 57, 58, 59, 60, 61, 62, 63, 64, 65, 66, 67, 68, 69, 70, 71, 72, 73, 74, 75, 76, 77, 78, 79, 80, 81, 82, 83, 84, 85, 86, 87, 88, 89, 90, 91, 92, 93, 94, 95, 96, 97, 98, 99, 100, 101, 102, 103, 104, 105, 106, 107, 108, 109, 110, 111, 112, 113, 114, 115, 116, 117, 118, 119, 120, 121, 122, 123, 124, 125, 126, 127, 128, 129, 130, 131, 132, 133, 134, 135, 136, 137, 138, 139, 140, 141, 142, 143, 144, 145, 146, 147, 148, 149, 150, 151, 152, 153, 154, 155, 156, 157, 158, 159, 160, 161, 162, 163, 164, 165, 166, 167, 168, 169, 170, 171, 172, 173, 174, 175, 176, 177, 178, 179, 180, 181, 182, 183, 184, 185, 186, 187, 188, 189, 190, 191, 192, 193, 194, 195, 196, 197, 198, 199, 200, 201, 202, 203, 204, 205, 206, 207, 208, 209, 210, 211, 212, 213, 214, 215, 216, 217, 218, 219, 220, 221, 222, 223, 224, 225, 226, 227, 228, 229, 230, 231, 232, 233, 234, 235, 236, 237, 238, 239, 240, 241, 242, 243, 244, 245, 246, 247, 248, 249, 250, 251, 252, 253, 254, 255, 256, 257, 258, 259, 260, 261, 262, 263, 264, 265, 266, 267, 268, 269, 270, 271, 272, 273, 274, 275, 276, 277, 278, 279, 280, 281, 282, 283, 284, 285, 286, 287, 288, 289, 290, 291, 292, 293, 294, 295, 296, 297, 298, 299, 300, 301, 302, 303, 304, 305, 306, 307, 308, 309, 310, 311, 312, 313, 314, 315, 316, 317, 318, 319, 320, 321, 322, 323, 324, 325, 326, 327, 328, 329, 330, 331, 332, 333, 334, 335, 336, 337, 338, 339, 340, 341, 342, 343, 344, 345, 346, 347, 348, 349, 350, 351, 352, 353, 354, 355, 356, 357, 358, 359, 360, 361, 362, 363, 364, 365, 366, 367, 368, 369, 370, 371, 372, 373, 374, 375, 376, 377, 378, 379, 380, 381, 382, 383, 384, 385, 386, 387, 388, 389, 390, 391, 392, 393, 394, 395, 396, 397, 398, 399, 400, 401, 402, 403, 404, 405, 406, 407, 408, 409, 410, 411, 412, 413, 414, 415, 416, 417, 418, 419, 420, 421, 422, 423, 424, 425, 426, 427, 428, 429, 430, 431, 432, 433, 434, 435, 436, 437, 438, 439, 440, 441, 442, 443, 444, 445, 446, 447, 448, 449, 450, 451, 452, 453, 454, 455, 456, 457, 458, 459, 460, 461, 462, 463, 464, 465, 466, 467, 468, 469, 470, 471, 472, 473, 474, 475, 476, 477, 478, 479, 480, 481, 482, 483, 484, 485, 486, 487, 488, 489, 490, 491, 492, 493, 494, 495, 496, 497, 498],
      "AcquisitionTime": ["210547.367500", "210548.367500", "210549.367500", "210550.367500", "210551.367500", "210552.367500", "210553.367500", "210554.367500", "210555.367500", "210556.367500", "210557.367500", "210558.367500", "210559.367500", "210600.367500", "210601.367500", "210602.367500", "210603.367500", "210604.367500", "210605.367500", "210606.367500", "210607.367500", "210608.367500", "210609.367500", "210610.367500", "210611.367500", "210612.367500", "210613.367500", "210614.367500", "210615.367500", "210616.367500", "210617.367500", "210618.367500", "210619.367500", "210620.367500", "210621.367500", "210622.367500", "210623.367500", "210624.367500", "210625.367500", "210626.367500", "210627.367500", "210628.367500", "210629.367500", "210630.367500", "210631.367500", "210632.367500", "210633.367500", "210634.367500", "210635.367500", "210636.367500", "210637.367500", "210638.367500", "210639.367500", "210640.367500", "210641.367500", "210642.367500", "210643.367500", "210644.367500", "210645.367500", "210646.367500", "210647.367500", "210648.367500", "210649.367500", "210650.367500", "210651.367500", "210652.367500", "210653.367500", "210654.367500", "210655.367500", "210656.367500", "210657.367500", "210658.367500", "210659.367500", "210700.367500", "210701.367500", "210702.367500", "210703.367500", "210704.367500", "210705.367500", "210706.367500", "210707.367500", "210708.367500", "210709.367500", "210710.367500", "210711.367500", "210712.367500", "210713.367500", "210714.367500", "210715.367500", "210716.367500", "210717.367500", "210718.367500", "210719.367500", "210720.367500", "210721.367500", "210722.367500", "210723.367500", "210724.367500", "210725.367500", "210726.367500", "210727.367500", "210728.367500", "210729.367500", "210730.367500", "210731.367500", "210732.367500", "210733.367500", "210734.367500", "210735.367500", "210736.367500", "210737.367500", "210738.367500", "210739.367500", "210740.367500", "210741.367500", "210742.367500", "210743.367500", "210744.367500", "210745.367500", "210746.367500", "210747.367500", "210748.367500", "210749.367500", "210750.367500", "210751.367500", "210752.367500", "210753.367500", "210754.367500", "210755.367500", "210756.367500", "210757.367500", "210758.367500", "210759.367500", "210800.367500", "210801.367500", "210802.367500", "210803.367500", "210804.367500", "210805.367500", "210806.367500", "210807.367500", "210808.367500", "210809.367500", "210810.367500", "210811.367500", "210812.367500", "210813.367500", "210814.367500", "210815.367500", "210816.367500", "210817.367500", "210818.367500", "210819.367500", "210820.367500", "210821.367500", "210822.367500", "210823.367500", "210824.367500", "210825.367500", "210826.367500", "210827.367500", "210828.367500", "210829.367500", "210830.367500", "210831.367500", "210832.367500", "210833.367500", "210834.367500", "210835.367500", "210836.367500", "210837.367500", "210838.367500", "210839.367500", "210840.367500", "210841.367500", "210842.367500", "210843.367500", "210844.367500", "210845.367500", "210846.367500", "210847.367500", "210848.367500", "210849.367500", "210850.367500", "210851.367500", "210852.367500", "210853.367500", "210854.367500", "210855.367500", "210856.367500", "210857.367500", "210858.367500", "210859.367500", "210900.367500", "210901.367500", "210902.367500", "210903.367500", "210904.367500", "210905.367500", "210906.367500", "210907.367500", "210908.367500", "210909.367500", "210910.367500", "210911.367500", "210912.367500", "210913.367500", "210914.367500", "210915.367500", "210916.367500", "210917.367500", "210918.367500", "210919.367500", "210920.367500", "210921.367500", "210922.367500", "210923.367500", "210924.367500", "210925.367500", "210926.367500", "210927.367500", "210928.367500", "210929.367500", "210930.367500", "210931.367500", "210932.367500", "210933.367500", "210934.367500", "210935.367500", "210936.367500", "210937.367500", "210938.367500", "210939.367500", "210940.367500", "210941.367500", "210942.367500", "210943.367500", "210944.367500", "210945.367500", "210946.367500", "210947.367500", "210948.367500", "210949.367500", "210950.367500", "210951.367500", "210952.367500", "210953.367500", "210954.367500", "210955.367500", "210956.367500", "210957.367500", "210958.367500", "210959.367500", "211000.367500", "211001.367500", "211002.367500", "211003.367500", "211004.367500", "211005.367500", "211006.367500", "211007.367500", "211008.367500", "211009.367500", "211010.367500", "211011.367500", "211012.367500", "211013.367500", "211014.367500", "211015.367500", "211016.367500", "211017.367500", "211018.367500", "211019.367500", "211020.367500", "211021.367500", "211022.367500", "211023.367500", "211024.367500", "211025.367500", "211026.367500", "211027.367500", "211028.367500", "211029.367500", "211030.367500", "211031.367500", "211032.367500", "211033.367500", "211034.367500", "211035.367500", "211036.367500", "211037.367500", "211038.367500", "211039.367500", "211040.367500", "211041.367500", "211042.367500", "211043.367500", "211044.367500", "211045.367500", "211046.367500", "211047.367500", "211048.367500", "211049.367500", "211050.367500", "211051.367500", "211052.367500", "211053.367500", "211054.367500", "211055.367500", "211056.367500", "211057.367500", "211058.367500", "211059.367500", "211100.367500", "211101.367500", "211102.367500", "211103.367500", "211104.367500", "211105.367500", "211106.367500", "211107.367500", "211108.367500", "211109.367500", "211110.367500", "211111.367500", "211112.367500", "211113.367500", "211114.367500", "211115.367500", "211116.367500", "211117.367500", "211118.367500", "211119.367500", "211120.367500", "211121.367500", "211122.367500", "211123.367500", "211124.367500", "211125.367500", "211126.367500", "211127.367500", "211128.367500", "211129.367500", "211130.367500", "211131.367500", "211132.367500", "211133.367500", "211134.367500", "211135.367500", "211136.367500", "211137.367500", "211138.367500", "211139.367500", "211140.367500", "211141.367500", "211142.367500", "211143.367500", "211144.367500", "211145.367500", "211146.367500", "211147.367500", "211148.367500", "211149.367500", "211150.367500", "211151.367500", "211152.367500", "211153.367500", "211154.367500", "211155.367500", "211156.367500", "211157.367500", "211158.367500", "211159.367500", "211200.367500", "211201.367500", "211202.367500", "211203.367500", "211204.367500", "211205.367500", "211206.367500", "211207.367500", "211208.367500", "211209.367500", "211210.367500", "211211.367500", "211212.367500", "211213.367500", "211214.367500", "211215.367500", "211216.367500", "211217.367500", "211218.367500", "211219.367500", "211220.367500", "211221.367500", "211222.367500", "211223.367500", "211224.367500", "211225.367500", "211226.367500", "211227.367500", "211228.367500", "211229.367500", "211230.367500", "211231.367500", "211232.367500", "211233.367500", "211234.367500", "211235.367500", "211236.367500", "211237.367500", "211238.367500", "211239.367500", "211240.367500", "211241.367500", "211242.367500", "211243.367500", "211244.367500", "211245.367500", "211246.367500", "211247.367500", "211248.367500", "211249.367500", "211250.367500", "211251.367500", "211252.367500", "211253.367500", "211254.367500", "211255.367500", "211256.367500", "211257.367500", "211258.367500", "211259.367500", "211300.367500", "211301.367500", "211302.367500", "211303.367500", "211304.367500", "211305.367500", "211306.367500", "211307.367500", "211308.367500", "211309.367500", "211310.367500", "211311.367500", "211312.367500", "211313.367500", "211314.367500", "211315.367500", "211316.367500", "211317.367500", "211318.367500", "211319.367500", "211320.367500", "211321.367500", "211322.367500", "211323.367500", "211324.367500", "211325.367500", "211326.367500", "211327.367500", "211328.367500", "211329.367500", "211330.367500", "211331.367500", "211332.367500", "211333.367500", "211334.367500", "211335.367500", "211336.367500", "211337.367500", "211338.367500", "211339.367500", "211340.367500", "211341.367500", "211342.367500", "211343.367500", "211344.367500", "211345.367500", "211346.367500", "211347.367500", "211348.367500", "211349.367500", "211350.367500", "211351.367500", "211352.367500", "211353.367500", "211354.367500", "211355.367500", "211356.367500", "211357.367500", "211358.367500", "211359.367500", "211400.367500", "211401.367500", "211402.367500", "211403.367500", "211404.367500"],
      "ContentTime": ["210548.428000", "210549.283000", "210550.248000", "210551.279000", "210552.314000", "210553.285000", "210554.301000", "210555.241000", "210556.279000", "210557.266000", "210558.268000", "210559.267000", "210600.279000", "210601.285000", "210602.275000", "210603.263000", "210604.261000", "210605.275000", "210606.255000", "210607.264000", "210608.266000", "210609.275000", "210610.262000", "210611.251000", "210612.268000", "210613.298000", "210614.262000", "210615.279000", "210616.278000", "210617.265000", "210618.248000", "210619.245000", "210620.289000", "210621.267000", "210622.282000", "210623.289000", "210624.270000", "210625.286000", "210626.344000", "210627.273000", "210628.266000", "210629.263000", "210630.264000", "210631.271000", "210632.251000", "210633.260000", "210634.273000", "210635.257000", "210636.266000", "210637.293000", "210638.274000", "210639.271000", "210640.273000", "210641.271000", "210642.275000", "210643.267000", "210644.260000", "210645.265000", "210646.254000", "210647.288000", "210648.261000", "210649.278000", "210650.264000", "210651.270000", "210652.270000", "210653.256000", "210654.263000", "210655.278000", "210656.276000", "210657.272000", "210658.263000", "210659.280000", "210700.252000", "210701.257000", "210702.285000", "210703.245000", "210704.281000", "210705.259000", "210706.257000", "210707.271000", "210708.264000", "210709.275000", "210710.276000", "210711.277000", "210712.270000", "210713.275000", "210714.247000", "210715.261000", "210716.266000", "210717.266000", "210718.290000", "210719.252000", "210720.231000", "210721.278000", "210722.295000", "210723.298000", "210724.283000", "210725.326000", "210726.281000", "210727.266000", "210728.275000", "210729.313000", "210730.304000", "210731.328000", "210732.309000", "210733.292000", "210734.309000", "210735.279000", "210736.301000", "210737.279000", "210738.293000", "210739.290000", "210740.274000", "210741.299000", "210742.264000", "210743.304000", "210744.262000", "210745.265000", "210746.282000", "210747.277000", "210748.288000", "210749.288000", "210750.274000", "210751.288000", "210752.250000", "210753.264000", "210754.281000", "210755.269000", "210756.264000", "210757.293000", "210758.272000", "210759.278000", "210800.276000", "210801.286000", "210802.267000", "210803.280000", "210804.263000", "210805.274000", "210806.264000", "210807.269000", "210808.263000", "210809.254000", "210810.244000", "210811.277000", "210812.250000", "210813.276000", "210814.256000", "210815.268000", "210816.265000", "210817.256000", "210818.259000", "210819.277000", "210820.281000", "210821.273000", "210822.275000", "210823.264000", "210824.284000", "210825.277000", "210826.272000", "210827.303000", "210828.286000", "210829.272000", "210830.274000", "210831.265000", "210832.249000", "210833.266000", "210834.302000", "210835.253000", "210836.265000", "210837.280000", "210838.251000", "210839.263000", "210840.286000", "210841.266000", "210842.277000", "210843.273000", "210844.270000", "210845.318000", "210846.283000", "210847.282000", "210848.286000", "210849.237000", "210850.309000", "210851.256000", "210852.264000", "210853.290000", "210854.292000", "210855.270000", "210856.254000", "210857.233000", "210858.256000", "210859.279000", "210900.308000", "210901.280000", "210902.250000", "210903.269000", "210904.239000", "210905.264000", "210906.278000", "210907.280000", "210908.272000", "210909.292000", "210910.304000", "210911.279000", "210912.333000", "210913.274000", "210914.292000", "210915.294000", "210916.316000", "210917.279000", "210918.280000", "210919.279000", "210920.298000", "210921.275000", "210922.275000", "210923.319000", "210924.297000", "210925.286000", "210926.289000", "210927.266000", "210928.264000", "210929.278000", "210930.305000", "210931.316000", "210932.319000", "210933.309000", "210934.275000", "210935.345000", "210936.246000", "210937.250000", "210938.279000", "210939.252000", "210940.257000", "210941.253000", "210942.279000", "210943.274000", "210944.268000", "210945.283000", "210946.272000", "210947.273000", "210948.267000", "210949.270000", "210950.287000", "210951.305000", "210952.271000", "210953.319000", "210954.271000", "210955.268000", "210956.271000", "210957.236000", "210958.246000", "210959.263000", "211000.262000", "211001.270000", "211002.287000", "211003.279000", "211004.270000", "211005.269000", "211006.313000", "211007.283000", "211008.260000", "211009.284000", "211010.281000", "211011.271000", "211012.273000", "211013.278000", "211014.272000", "211015.291000", "211016.246000", "211017.276000", "211018.278000", "211019.302000", "211020.302000", "211021.283000", "211022.280000", "211023.282000", "211024.272000", "211025.266000", "211026.272000", "211027.267000", "211028.261000", "211029.312000", "211030.265000", "211031.310000", "211032.335000", "211033.298000", "211034.276000", "211035.308000", "211036.295000", "211037.292000", "211038.290000", "211039.268000", "211040.316000", "211041.296000", "211042.259000", "211043.269000", "211044.301000", "211045.303000", "211046.287000", "211047.280000", "211048.270000", "211049.265000", "211050.282000", "211051.297000", "211052.275000", "211053.263000", "211054.277000", "211055.260000", "211056.276000", "211057.256000", "211058.280000", "211059.271000", "211100.307000", "211101.268000", "211102.263000", "211103.261000", "211104.327000", "211105.275000", "211106.263000", "211107.278000", "211108.268000", "211109.290000", "211110.267000", "211111.275000", "211112.276000", "211113.270000", "211114.298000", "211115.252000", "211116.252000", "211117.302000", "211118.269000", "211119.278000", "211120.300000", "211121.290000", "211122.308000", "211123.280000", "211124.324000", "211125.270000", "211126.336000", "211127.294000", "211128.275000", "211129.273000", "211130.269000", "211131.259000", "211132.255000", "211133.248000", "211134.246000", "211135.257000", "211136.325000", "211137.311000", "211138.263000", "211139.277000", "211140.244000", "211141.263000", "211142.278000", "211143.268000", "211144.287000", "211145.265000", "211146.251000", "211147.270000", "211148.267000", "211149.301000", "211150.277000", "211151.240000", "211152.237000", "211153.268000", "211154.247000", "211155.254000", "211156.251000", "211157.274000", "211158.270000", "211159.269000", "211200.264000", "211201.292000", "211202.237000", "211203.264000", "211204.278000", "211205.323000", "211206.296000", "211207.298000", "211208.273000", "211209.268000", "211210.301000", "211211.255000", "211212.278000", "211213.316000", "211214.254000", "211215.363000", "211216.278000", "211217.265000", "211218.276000", "211219.256000", "211220.271000", "211221.276000", "211222.310000", "211223.263000", "211224.273000", "211225.250000", "211226.257000", "211227.277000", "211228.236000", "211229.270000", "211230.297000", "211231.286000", "211232.286000", "211233.269000", "211234.259000", "211235.271000", "211236.263000", "211237.271000", "211238.280000", "211239.271000", "211240.248000", "211241.274000", "211242.303000", "211243.275000", "211244.288000", "211245.268000", "211246.269000", "211247.264000", "211248.270000", "211249.301000", "211250.259000", "211251.292000", "211252.272000", "211253.283000", "211254.259000", "211255.236000", "211256.261000", "211257.271000", "211258.302000", "211259.284000", "211300.274000", "211301.300000", "211302.265000", "211303.285000", "211304.357000", "211305.252000", "211306.261000", "211307.286000", "211308.253000", "211309.244000", "211310.269000", "211311.282000", "211312.265000", "211313.283000", "211314.290000", "211315.303000", "211316.293000", "211317.269000", "211318.266000", "211319.269000", "211320.259000", "211321.275000", "211322.255000", "211323.273000", "211324.257000", "211325.317000", "211326.289000", "211327.273000", "211328.264000", "211329.266000", "211330.256000", "211331.257000", "211332.263000", "211333.255000", "211334.276000", "211335.280000", "211336.276000", "211337.281000", "211338.282000", "211339.281000", "211340.286000", "211341.263000", "211342.228000", "211343.261000", "211344.258000", "211345.247000", "211346.274000", "211347.258000", "211348.284000", "211349.288000", "211350.265000", "211351.243000", "211352.261000", "211353.304000", "211354.280000", "211355.238000", "211356.271000", "211357.274000", "211358.293000", "211359.319000", "211400.277000", "211401.291000", "211402.266000", "211403.261000", "211404.314000", "211405.323000"],
