{
  "AcquisitionMatrixPE": 96,
  "AcquisitionNumber": 1,
  "AcquisitionTime": "21:35:14.167500",
  "BandwidthPerPixelPhaseEncode": 18.939,
  "BaseResolution": 96,
  "BodyPartExamined": "BRAIN",
  "ConsistencyInfo": "N4_VE11C_LATEST_20160120",
  "ConversionSoftware": "dcm2niix",
  "ConversionSoftwareVersion": "v1.0.20190902",
  "DerivedVendorReportedEchoSpacing": 0.000550011,
  "DeviceSerialNumber": "66112",
  "DwellTime": 2.2e-06,
  "EchoTime": 0.033,
  "EchoTrainLength": 96,
  "EffectiveEchoSpacing": 0.000550011,
  "FlipAngle": 59,
  "ImageOrientationPatientDICOM": [0.997916, 0.0452447, -0.0460085, -0.0489808, 0.995294, -0.083613],
  "ImageType": [
    "ORIGINAL",
    "PRIMARY",
    "FMRI",
    "NONE",
    "ND",
    "NORM",
    "MOSAIC"
],
  "ImagingFrequency": 123.252,
  "InPlanePhaseEncodingDirectionDICOM": "COL",
  "InstitutionAddress": "Maynard_3_Hanover_NH_US_03755",
  "InstitutionName": "Dartmouth_College_-_PBS",
  "InstitutionalDepartmentName": "Department",
  "MRAcquisitionType": "2D",
  "MagneticFieldStrength": 3,
  "Manufacturer": "Siemens",
  "ManufacturersModelName": "Prisma",
  "Modality": "MR",
  "MultibandAccelerationFactor": 4,
  "PartialFourier": 1,
  "PatientPosition": "HFS",
  "PercentPhaseFOV": 100,
  "PhaseEncodingDirection": "j-",
  "PhaseEncodingSteps": 96,
  "PhaseResolution": 1,
  "PixelBandwidth": 2365,
  "ProcedureStepDescription": "Gobbini_Matteo_1037_budapest",
  "ProtocolName": "func_run-05_task-movie",
  "PulseSequenceDetails": "%SiemensSeq%_ep2d_bold",
  "ReceiveCoilActiveElements": "HEA;HEP",
  "ReceiveCoilName": "Head_32",
  "ReconMatrixPE": 96,
  "RefLinesPE": 12,
  "RepetitionTime": 1,
  "SAR": 0.0519787,
  "ScanOptions": "FS",
  "ScanningSequence": "EP",
  "SequenceName": "_epfid2d1_96",
  "SequenceVariant": "SK",
  "SeriesDescription": "func_run-05_task-movie",
  "SeriesNumber": 36,
  "ShimSetting": [4125, -7699, -7366, 663, 13, -145, 58, 89],
  "SliceThickness": 2.5,
  "SliceTiming": [0.735, 0, 0.49, 0.0825, 0.5725, 0.1625, 0.6525, 0.3275, 0.8175, 0.4075, 0.8975, 0.245, 0.735, 0, 0.49, 0.0825, 0.5725, 0.1625, 0.6525, 0.3275, 0.8175, 0.4075, 0.8975, 0.245, 0.735, 0, 0.49, 0.0825, 0.5725, 0.1625, 0.6525, 0.3275, 0.8175, 0.4075, 0.8975, 0.245, 0.735, 0, 0.49, 0.0825, 0.5725, 0.1625, 0.6525, 0.3275, 0.8175, 0.4075, 0.8975, 0.245],
  "SoftwareVersions": "syngo_MR_E11",
  "SpacingBetweenSlices": 2.5,
  "StationName": "AWP66112",
  "TaskName": "movie",
  "TotalReadoutTime": 0.0522511,
  "TxRefAmp": 271.651,
  "dcmmeta_affine": [
    [-2.4947898387908936, -0.12245197594165802, -0.10502239316701889, 130.5638885498047],
    [-0.11311182379722595, 2.488234519958496, -0.2142307460308075, -100.74993896484375],
    [-0.11502132564783096, 0.2090325653553009, 2.48858904838562, -103.25031280517578],
    [0.0, 0.0, 0.0, 1.0]
],
  "dcmmeta_reorient_transform": [
    [0.0, -1.0, 0.0, 95.0],
    [1.0, 0.0, 0.0, 0.0],
    [0.0, 0.0, 1.0, 0.0],
    [0.0, 0.0, 0.0, 1.0]
],
  "dcmmeta_shape": [96, 96, 48, 803],
  "dcmmeta_slice_dim": 2,
  "dcmmeta_version": 0.6,
  "global": {
    "const": {
      "AccessionNumber": "A001332",
      "AcquisitionMatrix": [96, 0, 0, 96],
      "AngioFlag": "N",
      "BitsAllocated": 16,
      "BitsStored": 12,
      "BodyPartExamined": "BRAIN",
      "Columns": 672,
      "EchoNumbers": 1,
      "EchoTime": 33.0,
      "EchoTrainLength": 96,
      "FlipAngle": 59.0,
      "HighBit": 11,
      "ImageOrientationPatient": [0.99791589303334, 0.04524472835718, -0.0460085316801, -0.0489807911709, 0.99529379804064, -0.0836130233762],
      "ImagePositionPatient": [-802.16422761079, -884.82007953562, 9.9352983859],
      "ImageType": [
        "ORIGINAL",
        "PRIMARY",
        "FMRI",
        "NONE",
        "ND",
        "NORM",
        "MOSAIC"
],
      "ImagedNucleus": "1H",
      "ImagingFrequency": 123.25236,
      "InPlanePhaseEncodingDirection": "COL",
      "MRAcquisitionType": "2D",
      "MagneticFieldStrength": 3.0,
      "Manufacturer": "SIEMENS",
      "ManufacturerModelName": "Prisma",
      "Modality": "MR",
      "NumberOfAverages": 1.0,
      "NumberOfPhaseEncodingSteps": 96,
      "PercentPhaseFieldOfView": 100.0,
      "PercentSampling": 100.0,
      "PerformedProcedureStepStartTime": "203808.729000",
      "PhotometricInterpretation": "MONOCHROME2",
      "PixelBandwidth": 2365.0,
      "PixelRepresentation": 0,
      "PixelSpacing": [2.5, 2.5],
      "ProtocolName": "func_run-05_task-movie",
      "RepetitionTime": 1000.0,
      "Rows": 672,
      "SAR": 0.05197870646113,
      "SamplesPerPixel": 1,
      "ScanOptions": "FS",
      "ScanningSequence": "EP",
      "SequenceName": "*epfid2d1_96",
      "SequenceVariant": "SK",
      "SeriesDescription": "func_run-05_task-movie",
      "SeriesNumber": 36,
      "SeriesTime": "213515.601000",
      "SliceLocation": -99.630400156061,
      "SliceThickness": 2.5,
      "SmallestImagePixelValue": 0,
      "SoftwareVersions": "syngo MR E11",
      "SpacingBetweenSlices": 2.4999999702916,
      "SpecificCharacterSet": "ISO_IR 100",
      "StudyID": "1",
      "StudyTime": "203808.668000",
      "TransmitCoilName": "Body",
      "VariableFlipAngleFlag": "N",
      "WindowCenterWidthExplanation": "Algo1",
      "dBdt": 0.0},
    "slices": {}
  },
  "time": {
    "samples": {
      "AcquisitionNumber": [1, 2, 3, 4, 5, 6, 7, 8, 9, 10, 11, 12, 13, 14, 15, 16, 17, 18, 19, 20, 21, 22, 23, 24, 25, 26, 27, 28, 29, 30, 31, 32, 33, 34, 35, 36, 37, 38, 39, 40, 41, 42, 43, 44, 45, 46, 47, 48, 49, 50, 51, 52, 53, 54, 55, 56, 57, 58, 59, 60, 61, 62, 63, 64, 65, 66, 67, 68, 69, 70, 71, 72, 73, 74, 75, 76, 77, 78, 79, 80, 81, 82, 83, 84, 85, 86, 87, 88, 89, 90, 91, 92, 93, 94, 95, 96, 97, 98, 99, 100, 101, 102, 103, 104, 105, 106, 107, 108, 109, 110, 111, 112, 113, 114, 115, 116, 117, 118, 119, 120, 121, 122, 123, 124, 125, 126, 127, 128, 129, 130, 131, 132, 133, 134, 135, 136, 137, 138, 139, 140, 141, 142, 143, 144, 145, 146, 147, 148, 149, 150, 151, 152, 153, 154, 155, 156, 157, 158, 159, 160, 161, 162, 163, 164, 165, 166, 167, 168, 169, 170, 171, 172, 173, 174, 175, 176, 177, 178, 179, 180, 181, 182, 183, 184, 185, 186, 187, 188, 189, 190, 191, 192, 193, 194, 195, 196, 197, 198, 199, 200, 201, 202, 203, 204, 205, 206, 207, 208, 209, 210, 211, 212, 213, 214, 215, 216, 217, 218, 219, 220, 221, 222, 223, 224, 225, 226, 227, 228, 229, 230, 231, 232, 233, 234, 235, 236, 237, 238, 239, 240, 241, 242, 243, 244, 245, 246, 247, 248, 249, 250, 251, 252, 253, 254, 255, 256, 257, 258, 259, 260, 261, 262, 263, 264, 265, 266, 267, 268, 269, 270, 271, 272, 273, 274, 275, 276, 277, 278, 279, 280, 281, 282, 283, 284, 285, 286, 287, 288, 289, 290, 291, 292, 293, 294, 295, 296, 297, 298, 299, 300, 301, 302, 303, 304, 305, 306, 307, 308, 309, 310, 311, 312, 313, 314, 315, 316, 317, 318, 319, 320, 321, 322, 323, 324, 325, 326, 327, 328, 329, 330, 331, 332, 333, 334, 335, 336, 337, 338, 339, 340, 341, 342, 343, 344, 345, 346, 347, 348, 349, 350, 351, 352, 353, 354, 355, 356, 357, 358, 359, 360, 361, 362, 363, 364, 365, 366, 367, 368, 369, 370, 371, 372, 373, 374, 375, 376, 377, 378, 379, 380, 381, 382, 383, 384, 385, 386, 387, 388, 389, 390, 391, 392, 393, 394, 395, 396, 397, 398, 399, 400, 401, 402, 403, 404, 405, 406, 407, 408, 409, 410, 411, 412, 413, 414, 415, 416, 417, 418, 419, 420, 421, 422, 423, 424, 425, 426, 427, 428, 429, 430, 431, 432, 433, 434, 435, 436, 437, 438, 439, 440, 441, 442, 443, 444, 445, 446, 447, 448, 449, 450, 451, 452, 453, 454, 455, 456, 457, 458, 459, 460, 461, 462, 463, 464, 465, 466, 467, 468, 469, 470, 471, 472, 473, 474, 475, 476, 477, 478, 479, 480, 481, 482, 483, 484, 485, 486, 487, 488, 489, 490, 491, 492, 493, 494, 495, 496, 497, 498, 499, 500, 501, 502, 503, 504, 505, 506, 507, 508, 509, 510, 511, 512, 513, 514, 515, 516, 517, 518, 519, 520, 521, 522, 523, 524, 525, 526, 527, 528, 529, 530, 531, 532, 533, 534, 535, 536, 537, 538, 539, 540, 541, 542, 543, 544, 545, 546, 547, 548, 549, 550, 551, 552, 553, 554, 555, 556, 557, 558, 559, 560, 561, 562, 563, 564, 565, 566, 567, 568, 569, 570, 571, 572, 573, 574, 575, 576, 577, 578, 579, 580, 581, 582, 583, 584, 585, 586, 587, 588, 589, 590, 591, 592, 593, 594, 595, 596, 597, 598, 599, 600, 601, 602, 603, 604, 605, 606, 607, 608, 609, 610, 611, 612, 613, 614, 615, 616, 617, 618, 619, 620, 621, 622, 623, 624, 625, 626, 627, 628, 629, 630, 631, 632, 633, 634, 635, 636, 637, 638, 639, 640, 641, 642, 643, 644, 645, 646, 647, 648, 649, 650, 651, 652, 653, 654, 655, 656, 657, 658, 659, 660, 661, 662, 663, 664, 665, 666, 667, 668, 669, 670, 671, 672, 673, 674, 675, 676, 677, 678, 679, 680, 681, 682, 683, 684, 685, 686, 687, 688, 689, 690, 691, 692, 693, 694, 695, 696, 697, 698, 699, 700, 701, 702, 703, 704, 705, 706, 707, 708, 709, 710, 711, 712, 713, 714, 715, 716, 717, 718, 719, 720, 721, 722, 723, 724, 725, 726, 727, 728, 729, 730, 731, 732, 733, 734, 735, 736, 737, 738, 739, 740, 741, 742, 743, 744, 745, 746, 747, 748, 749, 750, 751, 752, 753, 754, 755, 756, 757, 758, 759, 760, 761, 762, 763, 764, 765, 766, 767, 768, 769, 770, 771, 772, 773, 774, 775, 776, 777, 778, 779, 780, 781, 782, 783, 784, 785, 786, 787, 788, 789, 790, 791, 792, 793, 794, 795, 796, 797, 798, 799, 800, 801, 802, 803],
      "AcquisitionTime": ["213514.167500", "213515.167500", "213516.167500", "213517.167500", "213518.167500", "213519.167500", "213520.167500", "213521.167500", "213522.167500", "213523.167500", "213524.167500", "213525.167500", "213526.167500", "213527.167500", "213528.167500", "213529.167500", "213530.167500", "213531.167500", "213532.167500", "213533.167500", "213534.167500", "213535.167500", "213536.167500", "213537.167500", "213538.167500", "213539.167500", "213540.167500", "213541.167500", "213542.167500", "213543.167500", "213544.167500", "213545.167500", "213546.167500", "213547.167500", "213548.167500", "213549.167500", "213550.167500", "213551.167500", "213552.167500", "213553.167500", "213554.167500", "213555.167500", "213556.167500", "213557.167500", "213558.167500", "213559.167500", "213600.167500", "213601.167500", "213602.167500", "213603.167500", "213604.167500", "213605.167500", "213606.167500", "213607.167500", "213608.167500", "213609.167500", "213610.167500", "213611.167500", "213612.167500", "213613.167500", "213614.167500", "213615.167500", "213616.167500", "213617.167500", "213618.167500", "213619.167500", "213620.167500", "213621.167500", "213622.167500", "213623.167500", "213624.167500", "213625.167500", "213626.167500", "213627.167500", "213628.167500", "213629.167500", "213630.167500", "213631.167500", "213632.167500", "213633.167500", "213634.167500", "213635.167500", "213636.167500", "213637.167500", "213638.167500", "213639.167500", "213640.167500", "213641.167500", "213642.167500", "213643.167500", "213644.167500", "213645.167500", "213646.167500", "213647.167500", "213648.167500", "213649.167500", "213650.167500", "213651.167500", "213652.167500", "213653.167500", "213654.167500", "213655.167500", "213656.167500", "213657.167500", "213658.167500", "213659.167500", "213700.167500", "213701.167500", "213702.167500", "213703.167500", "213704.167500", "213705.167500", "213706.167500", "213707.167500", "213708.167500", "213709.167500", "213710.167500", "213711.167500", "213712.167500", "213713.167500", "213714.167500", "213715.167500", "213716.167500", "213717.167500", "213718.167500", "213719.167500", "213720.167500", "213721.167500", "213722.167500", "213723.167500", "213724.167500", "213725.167500", "213726.167500", "213727.167500", "213728.167500", "213729.167500", "213730.167500", "213731.167500", "213732.167500", "213733.167500", "213734.167500", "213735.167500", "213736.167500", "213737.167500", "213738.167500", "213739.167500", "213740.167500", "213741.167500", "213742.167500", "213743.167500", "213744.167500", "213745.167500", "213746.167500", "213747.167500", "213748.167500", "213749.167500", "213750.167500", "213751.167500", "213752.167500", "213753.167500", "213754.167500", "213755.167500", "213756.167500", "213757.167500", "213758.167500", "213759.167500", "213800.167500", "213801.167500", "213802.167500", "213803.167500", "213804.167500", "213805.167500", "213806.167500", "213807.167500", "213808.167500", "213809.167500", "213810.167500", "213811.167500", "213812.167500", "213813.167500", "213814.167500", "213815.167500", "213816.167500", "213817.167500", "213818.167500", "213819.167500", "213820.167500", "213821.167500", "213822.167500", "213823.167500", "213824.167500", "213825.167500", "213826.167500", "213827.167500", "213828.167500", "213829.167500", "213830.167500", "213831.167500", "213832.167500", "213833.167500", "213834.167500", "213835.167500", "213836.167500", "213837.167500", "213838.167500", "213839.167500", "213840.167500", "213841.167500", "213842.167500", "213843.167500", "213844.167500", "213845.167500", "213846.167500", "213847.167500", "213848.167500", "213849.167500", "213850.167500", "213851.167500", "213852.167500", "213853.167500", "213854.167500", "213855.167500", "213856.167500", "213857.167500", "213858.167500", "213859.167500", "213900.167500", "213901.167500", "213902.167500", "213903.167500", "213904.167500", "213905.167500", "213906.167500", "213907.167500", "213908.167500", "213909.167500", "213910.167500", "213911.167500", "213912.167500", "213913.167500", "213914.167500", "213915.167500", "213916.167500", "213917.167500", "213918.167500", "213919.167500", "213920.167500", "213921.167500", "213922.167500", "213923.167500", "213924.167500", "213925.167500", "213926.167500", "213927.167500", "213928.167500", "213929.167500", "213930.167500", "213931.167500", "213932.167500", "213933.167500", "213934.167500", "213935.167500", "213936.167500", "213937.167500", "213938.167500", "213939.167500", "213940.167500", "213941.167500", "213942.167500", "213943.167500", "213944.167500", "213945.167500", "213946.167500", "213947.167500", "213948.167500", "213949.167500", "213950.167500", "213951.167500", "213952.167500", "213953.167500", "213954.167500", "213955.167500", "213956.167500", "213957.167500", "213958.167500", "213959.167500", "214000.167500", "214001.167500", "214002.167500", "214003.167500", "214004.167500", "214005.167500", "214006.167500", "214007.167500", "214008.167500", "214009.167500", "214010.167500", "214011.167500", "214012.167500", "214013.167500", "214014.167500", "214015.167500", "214016.167500", "214017.167500", "214018.167500", "214019.167500", "214020.167500", "214021.167500", "214022.167500", "214023.167500", "214024.167500", "214025.167500", "214026.167500", "214027.167500", "214028.167500", "214029.167500", "214030.167500", "214031.167500", "214032.167500", "214033.167500", "214034.167500", "214035.167500", "214036.167500", "214037.167500", "214038.167500", "214039.167500", "214040.167500", "214041.167500", "214042.167500", "214043.167500", "214044.167500", "214045.167500", "214046.167500", "214047.167500", "214048.167500", "214049.167500", "214050.167500", "214051.167500", "214052.167500", "214053.167500", "214054.167500", "214055.167500", "214056.167500", "214057.167500", "214058.167500", "214059.167500", "214100.167500", "214101.167500", "214102.167500", "214103.167500", "214104.167500", "214105.167500", "214106.167500", "214107.167500", "214108.167500", "214109.167500", "214110.167500", "214111.167500", "214112.167500", "214113.167500", "214114.167500", "214115.167500", "214116.167500", "214117.167500", "214118.167500", "214119.167500", "214120.167500", "214121.167500", "214122.167500", "214123.167500", "214124.167500", "214125.167500", "214126.167500", "214127.167500", "214128.167500", "214129.167500", "214130.167500", "214131.167500", "214132.167500", "214133.167500", "214134.167500", "214135.167500", "214136.167500", "214137.167500", "214138.167500", "214139.167500", "214140.167500", "214141.167500", "214142.167500", "214143.167500", "214144.167500", "214145.167500", "214146.167500", "214147.167500", "214148.167500", "214149.167500", "214150.167500", "214151.167500", "214152.167500", "214153.167500", "214154.167500", "214155.167500", "214156.167500", "214157.167500", "214158.167500", "214159.167500", "214200.167500", "214201.167500", "214202.167500", "214203.167500", "214204.167500", "214205.167500", "214206.167500", "214207.167500", "214208.167500", "214209.167500", "214210.167500", "214211.167500", "214212.167500", "214213.167500", "214214.167500", "214215.167500", "214216.167500", "214217.167500", "214218.167500", "214219.167500", "214220.167500", "214221.167500", "214222.167500", "214223.167500", "214224.167500", "214225.167500", "214226.167500", "214227.167500", "214228.167500", "214229.167500", "214230.167500", "214231.167500", "214232.167500", "214233.167500", "214234.167500", "214235.167500", "214236.167500", "214237.167500", "214238.167500", "214239.167500", "214240.167500", "214241.167500", "214242.167500", "214243.167500", "214244.167500", "214245.167500", "214246.167500", "214247.167500", "214248.167500", "214249.167500", "214250.167500", "214251.167500", "214252.167500", "214253.167500", "214254.167500", "214255.167500", "214256.167500", "214257.167500", "214258.167500", "214259.167500", "214300.167500", "214301.167500", "214302.167500", "214303.167500", "214304.167500", "214305.167500", "214306.167500", "214307.167500", "214308.167500", "214309.167500", "214310.167500", "214311.167500", "214312.167500", "214313.167500", "214314.167500", "214315.167500", "214316.167500", "214317.167500", "214318.167500", "214319.167500", "214320.167500", "214321.167500", "214322.167500", "214323.167500", "214324.167500", "214325.167500", "214326.167500", "214327.167500", "214328.167500", "214329.167500", "214330.167500", "214331.167500", "214332.167500", "214333.167500", "214334.167500", "214335.167500", "214336.167500", "214337.167500", "214338.167500", "214339.167500", "214340.167500", "214341.167500", "214342.167500", "214343.167500", "214344.167500", "214345.167500", "214346.167500", "214347.167500", "214348.167500", "214349.167500", "214350.167500", "214351.167500", "214352.167500", "214353.167500", "214354.167500", "214355.167500", "214356.167500", "214357.167500", "214358.167500", "214359.167500", "214400.167500", "214401.167500", "214402.167500", "214403.167500", "214404.167500", "214405.167500", "214406.167500", "214407.167500", "214408.167500", "214409.167500", "214410.167500", "214411.167500", "214412.167500", "214413.167500", "214414.167500", "214415.167500", "214416.167500", "214417.167500", "214418.167500", "214419.167500", "214420.167500", "214421.167500", "214422.167500", "214423.167500", "214424.167500", "214425.167500", "214426.167500", "214427.167500", "214428.167500", "214429.167500", "214430.167500", "214431.167500", "214432.167500", "214433.167500", "214434.167500", "214435.167500", "214436.167500", "214437.167500", "214438.167500", "214439.167500", "214440.167500", "214441.167500", "214442.167500", "214443.167500", "214444.167500", "214445.167500", "214446.167500", "214447.167500", "214448.167500", "214449.167500", "214450.167500", "214451.167500", "214452.167500", "214453.167500", "214454.167500", "214455.167500", "214456.167500", "214457.167500", "214458.167500", "214459.167500", "214500.167500", "214501.167500", "214502.167500", "214503.167500", "214504.167500", "214505.167500", "214506.167500", "214507.167500", "214508.167500", "214509.167500", "214510.167500", "214511.167500", "214512.167500", "214513.167500", "214514.167500", "214515.167500", "214516.167500", "214517.167500", "214518.167500", "214519.167500", "214520.167500", "214521.167500", "214522.167500", "214523.167500", "214524.167500", "214525.167500", "214526.167500", "214527.167500", "214528.167500", "214529.167500", "214530.167500", "214531.167500", "214532.167500", "214533.167500", "214534.167500", "214535.167500", "214536.167500", "214537.167500", "214538.167500", "214539.167500", "214540.167500", "214541.167500", "214542.167500", "214543.167500", "214544.167500", "214545.167500", "214546.167500", "214547.167500", "214548.167500", "214549.167500", "214550.167500", "214551.167500", "214552.167500", "214553.167500", "214554.167500", "214555.167500", "214556.167500", "214557.167500", "214558.167500", "214559.167500", "214600.167500", "214601.167500", "214602.167500", "214603.167500", "214604.167500", "214605.167500", "214606.167500", "214607.167500", "214608.167500", "214609.167500", "214610.167500", "214611.167500", "214612.167500", "214613.167500", "214614.167500", "214615.167500", "214616.167500", "214617.167500", "214618.167500", "214619.167500", "214620.167500", "214621.167500", "214622.167500", "214623.167500", "214624.167500", "214625.167500", "214626.167500", "214627.167500", "214628.167500", "214629.167500", "214630.167500", "214631.167500", "214632.167500", "214633.167500", "214634.167500", "214635.167500", "214636.167500", "214637.167500", "214638.167500", "214639.167500", "214640.167500", "214641.167500", "214642.167500", "214643.167500", "214644.167500", "214645.167500", "214646.167500", "214647.167500", "214648.167500", "214649.167500", "214650.167500", "214651.167500", "214652.167500", "214653.167500", "214654.167500", "214655.167500", "214656.167500", "214657.167500", "214658.167500", "214659.167500", "214700.167500", "214701.167500", "214702.167500", "214703.167500", "214704.167500", "214705.167500", "214706.167500", "214707.167500", "214708.167500", "214709.167500", "214710.167500", "214711.167500", "214712.167500", "214713.167500", "214714.167500", "214715.167500", "214716.167500", "214717.167500", "214718.167500", "214719.167500", "214720.167500", "214721.167500", "214722.167500", "214723.167500", "214724.167500", "214725.167500", "214726.167500", "214727.167500", "214728.167500", "214729.167500", "214730.167500", "214731.167500", "214732.167500", "214733.167500", "214734.167500", "214735.167500", "214736.167500", "214737.167500", "214738.167500", "214739.167500", "214740.167500", "214741.167500", "214742.167500", "214743.167500", "214744.167500", "214745.167500", "214746.167500", "214747.167500", "214748.167500", "214749.167500", "214750.167500", "214751.167500", "214752.167500", "214753.167500", "214754.167500", "214755.167500", "214756.167500", "214757.167500", "214758.167500", "214759.167500", "214800.167500", "214801.167500", "214802.167500", "214803.167500", "214804.167500", "214805.167500", "214806.167500", "214807.167500", "214808.167500", "214809.167500", "214810.167500", "214811.167500", "214812.167500", "214813.167500", "214814.167500", "214815.167500", "214816.167500", "214817.167500", "214818.167500", "214819.167500", "214820.167500", "214821.167500", "214822.167500", "214823.167500", "214824.167500", "214825.167500", "214826.167500", "214827.167500", "214828.167500", "214829.167500", "214830.167500", "214831.167500", "214832.167500", "214833.167500", "214834.167500", "214835.167500", "214836.167500"],
