{
  "AcquisitionMatrixPE": 96,
  "AcquisitionNumber": 1,
  "AcquisitionTime": "21:14:40.985000",
  "BandwidthPerPixelPhaseEncode": 18.939,
  "BaseResolution": 96,
  "BodyPartExamined": "BRAIN",
  "ConsistencyInfo": "N4_VE11C_LATEST_20160120",
  "ConversionSoftware": "dcm2niix",
  "ConversionSoftwareVersion": "v1.0.20190902",
  "DerivedVendorReportedEchoSpacing": 0.000550011,
  "DeviceSerialNumber": "66112",
  "DwellTime": 2.2e-06,
  "EchoTime": 0.033,
  "EchoTrainLength": 96,
  "EffectiveEchoSpacing": 0.000550011,
  "FlipAngle": 59,
  "ImageOrientationPatientDICOM": [0.997916, 0.0452447, -0.0460085, -0.0489808, 0.995294, -0.083613],
  "ImageType": [
    "ORIGINAL",
    "PRIMARY",
    "FMRI",
    "NONE",
    "ND",
    "NORM",
    "MOSAIC"
],
  "ImagingFrequency": 123.252,
  "InPlanePhaseEncodingDirectionDICOM": "COL",
  "InstitutionAddress": "Maynard_3_Hanover_NH_US_03755",
  "InstitutionName": "Dartmouth_College_-_PBS",
  "InstitutionalDepartmentName": "Department",
  "MRAcquisitionType": "2D",
  "MagneticFieldStrength": 3,
  "Manufacturer": "Siemens",
  "ManufacturersModelName": "Prisma",
  "Modality": "MR",
  "MultibandAccelerationFactor": 4,
  "PartialFourier": 1,
  "PatientPosition": "HFS",
  "PercentPhaseFOV": 100,
  "PhaseEncodingDirection": "j-",
  "PhaseEncodingSteps": 96,
  "PhaseResolution": 1,
  "PixelBandwidth": 2365,
  "ProcedureStepDescription": "Gobbini_Matteo_1037_budapest",
  "ProtocolName": "func_run-03_task-movie",
  "PulseSequenceDetails": "%SiemensSeq%_ep2d_bold",
  "ReceiveCoilActiveElements": "HEA;HEP",
  "ReceiveCoilName": "Head_32",
  "ReconMatrixPE": 96,
  "RefLinesPE": 12,
  "RepetitionTime": 1,
  "SAR": 0.0518739,
  "ScanOptions": "FS",
  "ScanningSequence": "EP",
  "SequenceName": "_epfid2d1_96",
  "SequenceVariant": "SK",
  "SeriesDescription": "func_run-03_task-movie",
  "SeriesNumber": 22,
  "ShimSetting": [4125, -7699, -7366, 663, 13, -145, 58, 89],
  "SliceThickness": 2.5,
  "SliceTiming": [0.735, 0, 0.49, 0.08, 0.57, 0.1625, 0.6525, 0.325, 0.815, 0.4075, 0.8975, 0.245, 0.735, 0, 0.49, 0.08, 0.57, 0.1625, 0.6525, 0.325, 0.815, 0.4075, 0.8975, 0.245, 0.735, 0, 0.49, 0.08, 0.57, 0.1625, 0.6525, 0.325, 0.815, 0.4075, 0.8975, 0.245, 0.735, 0, 0.49, 0.08, 0.57, 0.1625, 0.6525, 0.325, 0.815, 0.4075, 0.8975, 0.245],
  "SoftwareVersions": "syngo_MR_E11",
  "SpacingBetweenSlices": 2.5,
  "StationName": "AWP66112",
  "TaskName": "movie",
  "TotalReadoutTime": 0.0522511,
  "TxRefAmp": 271.651,
  "dcmmeta_affine": [
    [-2.4947898387908936, -0.12245197594165802, -0.10502239316701889, 130.5638885498047],
    [-0.11311182379722595, 2.488234519958496, -0.2142307460308075, -100.74993896484375],
    [-0.11502132564783096, 0.2090325653553009, 2.48858904838562, -103.25031280517578],
    [0.0, 0.0, 0.0, 1.0]
],
  "dcmmeta_reorient_transform": [
    [0.0, -1.0, 0.0, 95.0],
    [1.0, 0.0, 0.0, 0.0],
    [0.0, 0.0, 1.0, 0.0],
    [0.0, 0.0, 0.0, 1.0]
],
  "dcmmeta_shape": [96, 96, 48, 535],
  "dcmmeta_slice_dim": 2,
  "dcmmeta_version": 0.6,
  "global": {
    "const": {
      "AccessionNumber": "A001332",
      "AcquisitionMatrix": [96, 0, 0, 96],
      "AngioFlag": "N",
      "BitsAllocated": 16,
      "BitsStored": 12,
      "BodyPartExamined": "BRAIN",
      "Columns": 672,
      "EchoNumbers": 1,
      "EchoTime": 33.0,
      "EchoTrainLength": 96,
      "FlipAngle": 59.0,
      "HighBit": 11,
      "ImageOrientationPatient": [0.99791589303334, 0.04524472835718, -0.0460085316801, -0.0489807911709, 0.99529379804064, -0.0836130233762],
      "ImagePositionPatient": [-802.16422761079, -884.82007953562, 9.9352983859],
      "ImageType": [
        "ORIGINAL",
        "PRIMARY",
        "FMRI",
        "NONE",
        "ND",
        "NORM",
        "MOSAIC"
],
      "ImagedNucleus": "1H",
      "ImagingFrequency": 123.25235,
      "InPlanePhaseEncodingDirection": "COL",
      "MRAcquisitionType": "2D",
      "MagneticFieldStrength": 3.0,
      "Manufacturer": "SIEMENS",
      "ManufacturerModelName": "Prisma",
      "Modality": "MR",
      "NumberOfAverages": 1.0,
      "NumberOfPhaseEncodingSteps": 96,
      "PercentPhaseFieldOfView": 100.0,
      "PercentSampling": 100.0,
      "PerformedProcedureStepStartTime": "203808.729000",
      "PhotometricInterpretation": "MONOCHROME2",
      "PixelBandwidth": 2365.0,
      "PixelRepresentation": 0,
      "PixelSpacing": [2.5, 2.5],
      "ProtocolName": "func_run-03_task-movie",
      "RepetitionTime": 1000.0,
      "Rows": 672,
      "SAR": 0.05187386982936,
      "SamplesPerPixel": 1,
      "ScanOptions": "FS",
      "ScanningSequence": "EP",
      "SequenceName": "*epfid2d1_96",
      "SequenceVariant": "SK",
      "SeriesDescription": "func_run-03_task-movie",
      "SeriesNumber": 22,
      "SeriesTime": "211442.065000",
      "SliceLocation": -99.630400156061,
      "SliceThickness": 2.5,
      "SmallestImagePixelValue": 0,
      "SoftwareVersions": "syngo MR E11",
      "SpacingBetweenSlices": 2.4999999702916,
      "SpecificCharacterSet": "ISO_IR 100",
      "StudyID": "1",
      "StudyTime": "203808.668000",
      "TransmitCoilName": "Body",
      "VariableFlipAngleFlag": "N",
      "WindowCenterWidthExplanation": "Algo1",
      "dBdt": 0.0},
    "slices": {}
  },
  "time": {
    "samples": {
      "AcquisitionNumber": [1, 2, 3, 4, 5, 6, 7, 8, 9, 10, 11, 12, 13, 14, 15, 16, 17, 18, 19, 20, 21, 22, 23, 24, 25, 26, 27, 28, 29, 30, 31, 32, 33, 34, 35, 36, 37, 38, 39, 40, 41, 42, 43, 44, 45, 46, 47, 48, 49, 50, 51, 52, 53, 54, 55, 56, 57, 58, 59, 60, 61, 62, 63, 64, 65, 66, 67, 68, 69, 70, 71, 72, 73, 74, 75, 76, 77, 78, 79, 80, 81, 82, 83, 84, 85, 86, 87, 88, 89, 90, 91, 92, 93, 94, 95, 96, 97, 98, 99, 100, 101, 102, 103, 104, 105, 106, 107, 108, 109, 110, 111, 112, 113, 114, 115, 116, 117, 118, 119, 120, 121, 122, 123, 124, 125, 126, 127, 128, 129, 130, 131, 132, 133, 134, 135, 136, 137, 138, 139, 140, 141, 142, 143, 144, 145, 146, 147, 148, 149, 150, 151, 152, 153, 154, 155, 156, 157, 158, 159, 160, 161, 162, 163, 164, 165, 166, 167, 168, 169, 170, 171, 172, 173, 174, 175, 176, 177, 178, 179, 180, 181, 182, 183, 184, 185, 186, 187, 188, 189, 190, 191, 192, 193, 194, 195, 196, 197, 198, 199, 200, 201, 202, 203, 204, 205, 206, 207, 208, 209, 210, 211, 212, 213, 214, 215, 216, 217, 218, 219, 220, 221, 222, 223, 224, 225, 226, 227, 228, 229, 230, 231, 232, 233, 234, 235, 236, 237, 238, 239, 240, 241, 242, 243, 244, 245, 246, 247, 248, 249, 250, 251, 252, 253, 254, 255, 256, 257, 258, 259, 260, 261, 262, 263, 264, 265, 266, 267, 268, 269, 270, 271, 272, 273, 274, 275, 276, 277, 278, 279, 280, 281, 282, 283, 284, 285, 286, 287, 288, 289, 290, 291, 292, 293, 294, 295, 296, 297, 298, 299, 300, 301, 302, 303, 304, 305, 306, 307, 308, 309, 310, 311, 312, 313, 314, 315, 316, 317, 318, 319, 320, 321, 322, 323, 324, 325, 326, 327, 328, 329, 330, 331, 332, 333, 334, 335, 336, 337, 338, 339, 340, 341, 342, 343, 344, 345, 346, 347, 348, 349, 350, 351, 352, 353, 354, 355, 356, 357, 358, 359, 360, 361, 362, 363, 364, 365, 366, 367, 368, 369, 370, 371, 372, 373, 374, 375, 376, 377, 378, 379, 380, 381, 382, 383, 384, 385, 386, 387, 388, 389, 390, 391, 392, 393, 394, 395, 396, 397, 398, 399, 400, 401, 402, 403, 404, 405, 406, 407, 408, 409, 410, 411, 412, 413, 414, 415, 416, 417, 418, 419, 420, 421, 422, 423, 424, 425, 426, 427, 428, 429, 430, 431, 432, 433, 434, 435, 436, 437, 438, 439, 440, 441, 442, 443, 444, 445, 446, 447, 448, 449, 450, 451, 452, 453, 454, 455, 456, 457, 458, 459, 460, 461, 462, 463, 464, 465, 466, 467, 468, 469, 470, 471, 472, 473, 474, 475, 476, 477, 478, 479, 480, 481, 482, 483, 484, 485, 486, 487, 488, 489, 490, 491, 492, 493, 494, 495, 496, 497, 498, 499, 500, 501, 502, 503, 504, 505, 506, 507, 508, 509, 510, 511, 512, 513, 514, 515, 516, 517, 518, 519, 520, 521, 522, 523, 524, 525, 526, 527, 528, 529, 530, 531, 532, 533, 534, 535],
      "AcquisitionTime": ["211440.985000", "211441.985000", "211442.985000", "211443.985000", "211444.985000", "211445.985000", "211446.985000", "211447.985000", "211448.985000", "211449.985000", "211450.985000", "211451.985000", "211452.985000", "211453.985000", "211454.985000", "211455.985000", "211456.985000", "211457.985000", "211458.985000", "211459.985000", "211500.985000", "211501.985000", "211502.985000", "211503.985000", "211504.985000", "211505.985000", "211506.985000", "211507.985000", "211508.985000", "211509.985000", "211510.985000", "211511.985000", "211512.985000", "211513.985000", "211514.985000", "211515.985000", "211516.985000", "211517.985000", "211518.985000", "211519.985000", "211520.985000", "211521.985000", "211522.985000", "211523.985000", "211524.985000", "211525.985000", "211526.985000", "211527.985000", "211528.985000", "211529.985000", "211530.985000", "211531.985000", "211532.985000", "211533.985000", "211534.985000", "211535.985000", "211536.985000", "211537.985000", "211538.985000", "211539.985000", "211540.985000", "211541.985000", "211542.985000", "211543.985000", "211544.985000", "211545.985000", "211546.985000", "211547.985000", "211548.985000", "211549.985000", "211550.985000", "211551.985000", "211552.985000", "211553.985000", "211554.985000", "211555.985000", "211556.985000", "211557.985000", "211558.985000", "211559.985000", "211600.985000", "211601.985000", "211602.985000", "211603.985000", "211604.985000", "211605.985000", "211606.985000", "211607.985000", "211608.985000", "211609.985000", "211610.985000", "211611.985000", "211612.985000", "211613.985000", "211614.985000", "211615.985000", "211616.985000", "211617.985000", "211618.985000", "211619.985000", "211620.985000", "211621.985000", "211622.985000", "211623.985000", "211624.985000", "211625.985000", "211626.985000", "211627.985000", "211628.985000", "211629.985000", "211630.985000", "211631.985000", "211632.985000", "211633.985000", "211634.985000", "211635.985000", "211636.985000", "211637.985000", "211638.985000", "211639.985000", "211640.985000", "211641.985000", "211642.985000", "211643.985000", "211644.985000", "211645.985000", "211646.985000", "211647.985000", "211648.985000", "211649.985000", "211650.985000", "211651.985000", "211652.985000", "211653.985000", "211654.985000", "211655.985000", "211656.985000", "211657.985000", "211658.985000", "211659.985000", "211700.985000", "211701.985000", "211702.985000", "211703.985000", "211704.985000", "211705.985000", "211706.985000", "211707.985000", "211708.985000", "211709.985000", "211710.985000", "211711.985000", "211712.985000", "211713.985000", "211714.985000", "211715.985000", "211716.985000", "211717.985000", "211718.985000", "211719.985000", "211720.985000", "211721.985000", "211722.985000", "211723.985000", "211724.985000", "211725.985000", "211726.985000", "211727.985000", "211728.985000", "211729.985000", "211730.985000", "211731.985000", "211732.985000", "211733.985000", "211734.985000", "211735.985000", "211736.985000", "211737.985000", "211738.985000", "211739.985000", "211740.985000", "211741.985000", "211742.985000", "211743.985000", "211744.985000", "211745.985000", "211746.985000", "211747.985000", "211748.985000", "211749.985000", "211750.985000", "211751.985000", "211752.985000", "211753.985000", "211754.985000", "211755.985000", "211756.985000", "211757.985000", "211758.985000", "211759.985000", "211800.985000", "211801.985000", "211802.985000", "211803.985000", "211804.985000", "211805.985000", "211806.985000", "211807.985000", "211808.985000", "211809.985000", "211810.985000", "211811.985000", "211812.985000", "211813.985000", "211814.985000", "211815.985000", "211816.985000", "211817.985000", "211818.985000", "211819.985000", "211820.985000", "211821.985000", "211822.985000", "211823.985000", "211824.985000", "211825.985000", "211826.985000", "211827.985000", "211828.985000", "211829.985000", "211830.985000", "211831.985000", "211832.985000", "211833.985000", "211834.985000", "211835.985000", "211836.985000", "211837.985000", "211838.985000", "211839.985000", "211840.985000", "211841.985000", "211842.985000", "211843.985000", "211844.985000", "211845.985000", "211846.985000", "211847.985000", "211848.985000", "211849.985000", "211850.985000", "211851.985000", "211852.985000", "211853.985000", "211854.985000", "211855.985000", "211856.985000", "211857.985000", "211858.985000", "211859.985000", "211900.985000", "211901.985000", "211902.985000", "211903.985000", "211904.985000", "211905.985000", "211906.985000", "211907.985000", "211908.985000", "211909.985000", "211910.985000", "211911.985000", "211912.985000", "211913.985000", "211914.985000", "211915.985000", "211916.985000", "211917.985000", "211918.985000", "211919.985000", "211920.985000", "211921.985000", "211922.985000", "211923.985000", "211924.985000", "211925.985000", "211926.985000", "211927.985000", "211928.985000", "211929.985000", "211930.985000", "211931.985000", "211932.985000", "211933.985000", "211934.985000", "211935.985000", "211936.985000", "211937.985000", "211938.985000", "211939.985000", "211940.985000", "211941.985000", "211942.985000", "211943.985000", "211944.985000", "211945.985000", "211946.985000", "211947.985000", "211948.985000", "211949.985000", "211950.985000", "211951.985000", "211952.985000", "211953.985000", "211954.985000", "211955.985000", "211956.985000", "211957.985000", "211958.985000", "211959.985000", "212000.985000", "212001.985000", "212002.985000", "212003.985000", "212004.985000", "212005.985000", "212006.985000", "212007.985000", "212008.985000", "212009.985000", "212010.985000", "212011.985000", "212012.985000", "212013.985000", "212014.985000", "212015.985000", "212016.985000", "212017.985000", "212018.985000", "212019.985000", "212020.985000", "212021.985000", "212022.985000", "212023.985000", "212024.985000", "212025.985000", "212026.985000", "212027.985000", "212028.985000", "212029.985000", "212030.985000", "212031.985000", "212032.985000", "212033.985000", "212034.985000", "212035.985000", "212036.985000", "212037.985000", "212038.985000", "212039.985000", "212040.985000", "212041.985000", "212042.985000", "212043.985000", "212044.985000", "212045.985000", "212046.985000", "212047.985000", "212048.985000", "212049.985000", "212050.985000", "212051.985000", "212052.985000", "212053.985000", "212054.985000", "212055.985000", "212056.985000", "212057.985000", "212058.985000", "212059.985000", "212100.985000", "212101.985000", "212102.985000", "212103.985000", "212104.985000", "212105.985000", "212106.985000", "212107.985000", "212108.985000", "212109.985000", "212110.985000", "212111.985000", "212112.985000", "212113.985000", "212114.985000", "212115.985000", "212116.985000", "212117.985000", "212118.985000", "212119.985000", "212120.985000", "212121.985000", "212122.985000", "212123.985000", "212124.985000", "212125.985000", "212126.985000", "212127.985000", "212128.985000", "212129.985000", "212130.985000", "212131.985000", "212132.985000", "212133.985000", "212134.985000", "212135.985000", "212136.985000", "212137.985000", "212138.985000", "212139.985000", "212140.985000", "212141.985000", "212142.985000", "212143.985000", "212144.985000", "212145.985000", "212146.985000", "212147.985000", "212148.985000", "212149.985000", "212150.985000", "212151.985000", "212152.985000", "212153.985000", "212154.985000", "212155.985000", "212156.985000", "212157.985000", "212158.985000", "212159.985000", "212200.985000", "212201.985000", "212202.985000", "212203.985000", "212204.985000", "212205.985000", "212206.985000", "212207.985000", "212208.985000", "212209.985000", "212210.985000", "212211.985000", "212212.985000", "212213.985000", "212214.985000", "212215.985000", "212216.985000", "212217.985000", "212218.985000", "212219.985000", "212220.985000", "212221.985000", "212222.985000", "212223.985000", "212224.985000", "212225.985000", "212226.985000", "212227.985000", "212228.985000", "212229.985000", "212230.985000", "212231.985000", "212232.985000", "212233.985000", "212234.985000", "212235.985000", "212236.985000", "212237.985000", "212238.985000", "212239.985000", "212240.985000", "212241.985000", "212242.985000", "212243.985000", "212244.985000", "212245.985000", "212246.985000", "212247.985000", "212248.985000", "212249.985000", "212250.985000", "212251.985000", "212252.985000", "212253.985000", "212254.985000", "212255.985000", "212256.985000", "212257.985000", "212258.985000", "212259.985000", "212300.985000", "212301.985000", "212302.985000", "212303.985000", "212304.985000", "212305.985000", "212306.985000", "212307.985000", "212308.985000", "212309.985000", "212310.985000", "212311.985000", "212312.985000", "212313.985000", "212314.985000", "212315.985000", "212316.985000", "212317.985000", "212318.985000", "212319.985000", "212320.985000", "212321.985000", "212322.985000", "212323.985000", "212324.985000", "212325.985000", "212326.985000", "212327.985000", "212328.985000", "212329.985000", "212330.985000", "212331.985000", "212332.985000", "212333.985000", "212334.985000"],
      "ContentTime": ["211442.069000", "211442.924000", "211443.897000", "211444.920000", "211445.911000", "211446.895000", "211447.900000", "211448.949000", "211449.960000", "211450.932000", "211451.964000", "211452.961000", "211453.942000", "211454.922000", "211455.919000", "211456.962000", "211457.921000", "211458.922000", "211459.914000", "211500.896000", "211501.893000", "211502.925000", "211503.891000", "211504.925000", "211505.955000", "211506.913000", "211507.903000", "211508.891000", "211509.877000", "211510.940000", "211511.931000", "211512.925000", "211513.905000", "211514.912000", "211515.907000", "211516.947000", "211517.944000", "211518.892000", "211519.915000", "211520.907000", "211521.902000", "211522.909000", "211523.930000", "211524.908000", "211525.944000", "211526.920000", "211527.910000", "211528.920000", "211529.937000", "211530.909000", "211531.945000", "211532.907000", "211533.913000", "211534.877000", "211535.949000", "211536.970000", "211537.941000", "211538.957000", "211539.894000", "211540.947000", "211541.898000", "211542.892000", "211543.895000", "211544.929000", "211545.907000", "211546.918000", "211547.944000", "211548.894000", "211549.918000", "211550.913000", "211551.925000", "211552.878000", "211553.921000", "211554.934000", "211555.927000", "211556.900000", "211557.878000", "211558.930000", "211559.904000", "211600.907000", "211601.886000", "211602.878000", "211603.909000", "211604.901000", "211605.911000", "211606.924000", "211607.900000", "211608.894000", "211609.903000", "211610.895000", "211611.921000", "211612.945000", "211613.905000", "211614.902000", "211615.903000", "211616.898000", "211617.907000", "211618.927000", "211619.894000", "211620.913000", "211621.915000", "211622.935000", "211623.922000", "211624.941000", "211625.935000", "211626.915000", "211627.877000", "211628.915000", "211629.919000", "211630.909000", "211631.900000", "211632.906000", "211633.982000", "211634.898000", "211635.913000", "211636.938000", "211637.899000", "211638.913000", "211639.935000", "211640.928000", "211641.937000", "211642.897000", "211643.929000", "211644.921000", "211645.943000", "211646.916000", "211647.927000", "211648.926000", "211649.888000", "211650.926000", "211651.923000", "211652.942000", "211653.921000", "211654.910000", "211655.908000", "211656.912000", "211657.921000", "211658.983000", "211659.938000", "211700.946000", "211701.921000", "211702.923000", "211703.912000", "211704.914000", "211705.923000", "211706.910000", "211707.937000", "211708.939000", "211710.009000", "211710.905000", "211711.939000", "211712.939000", "211713.944000", "211714.977000", "211715.921000", "211716.943000", "211717.929000", "211718.903000", "211719.914000", "211720.923000", "211721.920000", "211722.928000", "211723.916000", "211724.894000", "211725.945000", "211726.920000", "211727.917000", "211728.932000", "211729.951000", "211730.928000", "211731.906000", "211732.942000", "211733.923000", "211734.914000", "211735.916000", "211736.935000", "211737.958000", "211738.969000", "211739.924000", "211740.922000", "211741.880000", "211742.926000", "211743.917000", "211744.937000", "211745.926000", "211746.912000", "211747.924000", "211748.933000", "211749.920000", "211750.924000", "211751.911000", "211752.911000", "211753.942000", "211754.913000", "211755.941000", "211756.911000", "211757.919000", "211758.898000", "211759.909000", "211800.965000", "211801.924000", "211802.898000", "211803.931000", "211804.955000", "211805.924000", "211806.911000", "211807.914000", "211808.945000", "211809.906000", "211810.929000", "211811.916000", "211812.938000", "211813.899000", "211814.892000", "211815.927000", "211816.913000", "211817.925000", "211818.913000", "211819.912000", "211820.917000", "211821.919000", "211822.889000", "211823.900000", "211824.922000", "211825.892000", "211826.925000", "211827.900000", "211828.898000", "211829.882000", "211830.892000", "211831.965000", "211832.902000", "211833.901000", "211834.895000", "211835.910000", "211836.909000", "211837.898000", "211838.952000", "211839.945000", "211840.923000", "211841.924000", "211842.923000", "211843.928000", "211844.888000", "211845.939000", "211846.917000", "211847.947000", "211848.900000", "211849.887000", "211850.954000", "211851.961000", "211852.902000", "211853.918000", "211854.904000", "211855.909000", "211856.883000", "211857.916000", "211858.921000", "211859.927000", "211900.916000", "211901.924000", "211902.911000", "211903.897000", "211904.958000", "211905.923000", "211906.947000", "211907.914000", "211908.886000", "211909.901000", "211910.915000", "211911.917000", "211912.966000", "211913.927000", "211914.922000", "211915.927000", "211916.920000", "211917.906000", "211918.956000", "211919.928000", "211920.889000", "211921.924000", "211922.910000", "211923.883000", "211924.898000", "211925.951000", "211926.932000", "211927.919000", "211928.925000", "211930.000000", "211930.915000", "211931.915000", "211932.934000", "211933.916000", "211934.913000", "211935.909000", "211936.917000", "211937.939000", "211938.914000", "211939.910000", "211940.909000", "211941.914000", "211942.903000", "211943.907000", "211944.931000", "211945.915000", "211946.936000", "211947.892000", "211948.906000", "211949.907000", "211950.934000", "211951.910000", "211952.884000", "211953.920000", "211954.926000", "211955.881000", "211956.929000", "211957.911000", "211958.921000", "211959.930000", "212000.909000", "212001.903000", "212002.929000", "212003.914000", "212004.904000", "212005.928000", "212006.915000", "212007.927000", "212008.933000", "212009.913000", "212010.902000", "212011.879000", "212012.930000", "212013.920000", "212014.912000", "212015.901000", "212016.889000", "212017.925000", "212018.900000", "212019.907000", "212020.938000", "212021.904000", "212022.920000", "212023.912000", "212024.911000", "212025.895000", "212026.913000", "212027.909000", "212028.883000", "212029.936000", "212030.888000", "212031.933000", "212032.908000", "212033.933000", "212034.927000", "212035.929000", "212036.909000", "212037.896000", "212038.910000", "212039.915000", "212040.962000", "212041.913000", "212042.913000", "212043.931000", "212044.903000", "212045.926000", "212046.906000", "212047.932000", "212048.929000", "212049.916000", "212050.897000", "212051.916000", "212052.881000", "212053.921000", "212054.916000", "212055.918000", "212056.963000", "212057.894000", "212058.914000", "212059.918000", "212100.905000", "212101.910000", "212102.892000", "212103.936000", "212104.904000", "212105.914000", "212106.914000", "212107.890000", "212108.900000", "212109.905000", "212110.902000", "212111.902000", "212112.906000", "212113.924000", "212114.903000", "212115.915000", "212116.905000", "212117.986000", "212118.912000", "212119.911000", "212120.915000", "212121.927000", "212122.962000", "212123.927000", "212124.937000", "212125.951000", "212126.885000", "212127.897000", "212128.912000", "212129.910000", "212130.900000", "212131.910000", "212132.907000", "212133.889000", "212134.956000", "212135.901000", "212136.900000", "212137.895000", "212138.893000", "212139.908000", "212140.908000", "212141.910000", "212142.915000", "212143.922000", "212144.913000", "212145.898000", "212146.908000", "212147.913000", "212148.901000", "212149.895000", "212150.926000", "212151.956000", "212152.943000", "212153.958000", "212154.924000", "212155.919000", "212156.904000", "212157.908000", "212158.904000", "212159.907000", "212200.910000", "212201.903000", "212202.914000", "212203.909000", "212204.928000", "212205.905000", "212206.941000", "212207.926000", "212208.916000", "212209.928000", "212210.917000", "212211.912000", "212212.901000", "212213.897000", "212214.914000", "212215.905000", "212216.904000", "212217.925000", "212218.904000", "212219.935000", "212220.937000", "212221.903000", "212222.919000", "212223.951000", "212224.943000", "212225.933000", "212226.908000", "212227.909000", "212228.918000", "212229.921000", "212230.912000", "212231.927000", "212232.909000", "212233.892000", "212234.916000", "212235.916000", "212236.910000", "212237.896000", "212238.948000", "212239.869000", "212240.891000", "212241.908000", "212242.944000", "212243.931000", "212244.946000", "212245.893000", "212246.931000", "212247.926000", "212248.905000", "212249.900000", "212250.922000", "212251.912000", "212252.893000", "212253.886000", "212254.904000", "212255.942000", "212256.921000", "212257.879000", "212258.977000", "212259.951000", "212300.980000", "212301.953000", "212303.038000", "212303.967000", "212304.969000", "212305.950000", "212306.969000", "212307.958000", "212308.947000", "212309.960000", "212310.956000", "212311.961000", "212312.962000", "212313.963000", "212314.961000", "212315.979000", "212316.972000", "212317.967000", "212318.969000", "212319.945000", "212320.948000", "212321.968000", "212322.968000", "212323.974000", "212324.969000", "212325.970000", "212326.976000", "212327.975000", "212328.969000", "212329.996000", "212330.959000", "212331.968000", "212332.970000", "212333.969000", "212334.956000", "212335.947000"],
