{
  "AcquisitionMatrixPE": 96,
  "AcquisitionNumber": 1,
  "AcquisitionTime": "20:47:57.235000",
  "BandwidthPerPixelPhaseEncode": 18.939,
  "BaseResolution": 96,
  "BodyPartExamined": "BRAIN",
  "ConsistencyInfo": "N4_VE11C_LATEST_20160120",
  "ConversionSoftware": "dcm2niix",
  "ConversionSoftwareVersion": "v1.0.20190902",
  "DerivedVendorReportedEchoSpacing": 0.000550011,
  "DeviceSerialNumber": "66112",
  "DwellTime": 2.2e-06,
  "EchoTime": 0.033,
  "EchoTrainLength": 96,
  "EffectiveEchoSpacing": 0.000550011,
  "FlipAngle": 59,
  "ImageOrientationPatientDICOM": [0.999669, 0.024135, 0.00894413, -0.0240822, 0.999692, -0.00595718],
  "ImageType": [
    "ORIGINAL",
    "PRIMARY",
    "FMRI",
    "NONE",
    "ND",
    "NORM",
    "MOSAIC"
],
  "ImagingFrequency": 123.252,
  "InPlanePhaseEncodingDirectionDICOM": "COL",
  "InstitutionAddress": "Maynard_3_Hanover_NH_US_03755",
  "InstitutionName": "Dartmouth_College_-_PBS",
  "InstitutionalDepartmentName": "Department",
  "MRAcquisitionType": "2D",
  "MagneticFieldStrength": 3,
  "Manufacturer": "Siemens",
  "ManufacturersModelName": "Prisma",
  "Modality": "MR",
  "MultibandAccelerationFactor": 4,
  "PartialFourier": 1,
  "PatientPosition": "HFS",
  "PercentPhaseFOV": 100,
  "PhaseEncodingDirection": "j-",
  "PhaseEncodingSteps": 96,
  "PhaseResolution": 1,
  "PixelBandwidth": 2365,
  "ProcedureStepDescription": "Gobbini_Matteo_1037_budapest",
  "ProtocolName": "func_run-04_task-movie",
  "PulseSequenceDetails": "%SiemensSeq%_ep2d_bold",
  "ReceiveCoilActiveElements": "HEA;HEP",
  "ReceiveCoilName": "Head_32",
  "ReconMatrixPE": 96,
  "RefLinesPE": 12,
  "RepetitionTime": 1,
  "SAR": 0.0532706,
  "ScanOptions": "FS",
  "ScanningSequence": "EP",
  "SequenceName": "_epfid2d1_96",
  "SequenceVariant": "SK",
  "SeriesDescription": "func_run-04_task-movie",
  "SeriesNumber": 29,
  "ShimSetting": [4137, -7688, -7287, 516, -24, 109, 79, 79],
  "SliceThickness": 2.5,
  "SliceTiming": [0.735, 0, 0.49, 0.0825, 0.5725, 0.1625, 0.6525, 0.3275, 0.8175, 0.4075, 0.8975, 0.245, 0.735, 0, 0.49, 0.0825, 0.5725, 0.1625, 0.6525, 0.3275, 0.8175, 0.4075, 0.8975, 0.245, 0.735, 0, 0.49, 0.0825, 0.5725, 0.1625, 0.6525, 0.3275, 0.8175, 0.4075, 0.8975, 0.245, 0.735, 0, 0.49, 0.0825, 0.5725, 0.1625, 0.6525, 0.3275, 0.8175, 0.4075, 0.8975, 0.245],
  "SoftwareVersions": "syngo_MR_E11",
  "SpacingBetweenSlices": 2.5,
  "StationName": "AWP66112",
  "TaskName": "movie",
  "TotalReadoutTime": 0.0522511,
  "TxRefAmp": 246.713,
  "dcmmeta_affine": [
    [-2.499171733856201, -0.060205571353435516, 0.02271287888288498, 127.28321075439453],
    [-0.06033739820122719, 2.4992306232452393, -0.014349520206451416, -103.46067810058594],
    [0.022360321134328842, 0.014892940409481525, 2.4998555183410645, -57.07918930053711],
    [0.0, 0.0, 0.0, 1.0]
],
  "dcmmeta_reorient_transform": [
    [0.0, -1.0, 0.0, 95.0],
    [1.0, 0.0, 0.0, 0.0],
    [0.0, 0.0, 1.0, 0.0],
    [0.0, 0.0, 0.0, 1.0]
],
  "dcmmeta_shape": [96, 96, 48, 618],
  "dcmmeta_slice_dim": 2,
  "dcmmeta_version": 0.6,
  "global": {
    "const": {
      "AccessionNumber": "A001091",
      "AcquisitionMatrix": [96, 0, 0, 96],
      "AngioFlag": "N",
      "BitsAllocated": 16,
      "BitsStored": 12,
      "BodyPartExamined": "BRAIN",
      "Columns": 672,
      "EchoNumbers": 1,
      "EchoTime": 33.0,
      "EchoTrainLength": 96,
      "FlipAngle": 59.0,
      "HighBit": 11,
      "ImageOrientationPatient": [0.99966869826184, 0.02413495987316, 0.00894412809588, -0.0240822286372, 0.9996922317972, -0.0059571761944],
      "ImagePositionPatient": [-823.98593730684, -871.12180416076, -57.814966873864],
      "ImageType": [
        "ORIGINAL",
        "PRIMARY",
        "FMRI",
        "NONE",
        "ND",
        "NORM",
        "MOSAIC"
],
      "ImagedNucleus": "1H",
      "ImagingFrequency": 123.252318,
      "InPlanePhaseEncodingDirection": "COL",
      "MRAcquisitionType": "2D",
      "MagneticFieldStrength": 3.0,
      "Manufacturer": "SIEMENS",
      "ManufacturerModelName": "Prisma",
      "Modality": "MR",
      "NumberOfAverages": 1.0,
      "NumberOfPhaseEncodingSteps": 96,
      "PercentPhaseFieldOfView": 100.0,
      "PercentSampling": 100.0,
      "PerformedProcedureStepStartTime": "195906.991000",
      "PhotometricInterpretation": "MONOCHROME2",
      "PixelBandwidth": 2365.0,
      "PixelRepresentation": 0,
      "PixelSpacing": [2.5, 2.5],
      "ProtocolName": "func_run-04_task-movie",
      "RepetitionTime": 1000.0,
      "Rows": 672,
      "SAR": 0.05327062381106,
      "SamplesPerPixel": 1,
      "ScanOptions": "FS",
      "ScanningSequence": "EP",
      "SequenceName": "*epfid2d1_96",
      "SequenceVariant": "SK",
      "SeriesDescription": "func_run-04_task-movie",
      "SeriesNumber": 29,
      "SeriesTime": "204758.377000",
      "SliceLocation": -55.325663170615,
      "SliceThickness": 2.5,
      "SmallestImagePixelValue": 0,
      "SoftwareVersions": "syngo MR E11",
      "SpacingBetweenSlices": 2.4999999704986,
      "SpecificCharacterSet": "ISO_IR 100",
      "StudyID": "1",
      "StudyTime": "195906.934000",
      "TransmitCoilName": "Body",
      "VariableFlipAngleFlag": "N",
      "WindowCenterWidthExplanation": "Algo1",
      "dBdt": 0.0},
    "slices": {}
  },
  "time": {
    "samples": {
      "AcquisitionNumber": [1, 2, 3, 4, 5, 6, 7, 8, 9, 10, 11, 12, 13, 14, 15, 16, 17, 18, 19, 20, 21, 22, 23, 24, 25, 26, 27, 28, 29, 30, 31, 32, 33, 34, 35, 36, 37, 38, 39, 40, 41, 42, 43, 44, 45, 46, 47, 48, 49, 50, 51, 52, 53, 54, 55, 56, 57, 58, 59, 60, 61, 62, 63, 64, 65, 66, 67, 68, 69, 70, 71, 72, 73, 74, 75, 76, 77, 78, 79, 80, 81, 82, 83, 84, 85, 86, 87, 88, 89, 90, 91, 92, 93, 94, 95, 96, 97, 98, 99, 100, 101, 102, 103, 104, 105, 106, 107, 108, 109, 110, 111, 112, 113, 114, 115, 116, 117, 118, 119, 120, 121, 122, 123, 124, 125, 126, 127, 128, 129, 130, 131, 132, 133, 134, 135, 136, 137, 138, 139, 140, 141, 142, 143, 144, 145, 146, 147, 148, 149, 150, 151, 152, 153, 154, 155, 156, 157, 158, 159, 160, 161, 162, 163, 164, 165, 166, 167, 168, 169, 170, 171, 172, 173, 174, 175, 176, 177, 178, 179, 180, 181, 182, 183, 184, 185, 186, 187, 188, 189, 190, 191, 192, 193, 194, 195, 196, 197, 198, 199, 200, 201, 202, 203, 204, 205, 206, 207, 208, 209, 210, 211, 212, 213, 214, 215, 216, 217, 218, 219, 220, 221, 222, 223, 224, 225, 226, 227, 228, 229, 230, 231, 232, 233, 234, 235, 236, 237, 238, 239, 240, 241, 242, 243, 244, 245, 246, 247, 248, 249, 250, 251, 252, 253, 254, 255, 256, 257, 258, 259, 260, 261, 262, 263, 264, 265, 266, 267, 268, 269, 270, 271, 272, 273, 274, 275, 276, 277, 278, 279, 280, 281, 282, 283, 284, 285, 286, 287, 288, 289, 290, 291, 292, 293, 294, 295, 296, 297, 298, 299, 300, 301, 302, 303, 304, 305, 306, 307, 308, 309, 310, 311, 312, 313, 314, 315, 316, 317, 318, 319, 320, 321, 322, 323, 324, 325, 326, 327, 328, 329, 330, 331, 332, 333, 334, 335, 336, 337, 338, 339, 340, 341, 342, 343, 344, 345, 346, 347, 348, 349, 350, 351, 352, 353, 354, 355, 356, 357, 358, 359, 360, 361, 362, 363, 364, 365, 366, 367, 368, 369, 370, 371, 372, 373, 374, 375, 376, 377, 378, 379, 380, 381, 382, 383, 384, 385, 386, 387, 388, 389, 390, 391, 392, 393, 394, 395, 396, 397, 398, 399, 400, 401, 402, 403, 404, 405, 406, 407, 408, 409, 410, 411, 412, 413, 414, 415, 416, 417, 418, 419, 420, 421, 422, 423, 424, 425, 426, 427, 428, 429, 430, 431, 432, 433, 434, 435, 436, 437, 438, 439, 440, 441, 442, 443, 444, 445, 446, 447, 448, 449, 450, 451, 452, 453, 454, 455, 456, 457, 458, 459, 460, 461, 462, 463, 464, 465, 466, 467, 468, 469, 470, 471, 472, 473, 474, 475, 476, 477, 478, 479, 480, 481, 482, 483, 484, 485, 486, 487, 488, 489, 490, 491, 492, 493, 494, 495, 496, 497, 498, 499, 500, 501, 502, 503, 504, 505, 506, 507, 508, 509, 510, 511, 512, 513, 514, 515, 516, 517, 518, 519, 520, 521, 522, 523, 524, 525, 526, 527, 528, 529, 530, 531, 532, 533, 534, 535, 536, 537, 538, 539, 540, 541, 542, 543, 544, 545, 546, 547, 548, 549, 550, 551, 552, 553, 554, 555, 556, 557, 558, 559, 560, 561, 562, 563, 564, 565, 566, 567, 568, 569, 570, 571, 572, 573, 574, 575, 576, 577, 578, 579, 580, 581, 582, 583, 584, 585, 586, 587, 588, 589, 590, 591, 592, 593, 594, 595, 596, 597, 598, 599, 600, 601, 602, 603, 604, 605, 606, 607, 608, 609, 610, 611, 612, 613, 614, 615, 616, 617, 618],
      "AcquisitionTime": ["204757.235000", "204758.235000", "204759.235000", "204800.235000", "204801.235000", "204802.235000", "204803.235000", "204804.235000", "204805.235000", "204806.235000", "204807.235000", "204808.235000", "204809.235000", "204810.235000", "204811.235000", "204812.235000", "204813.235000", "204814.235000", "204815.235000", "204816.235000", "204817.235000", "204818.235000", "204819.235000", "204820.235000", "204821.235000", "204822.235000", "204823.235000", "204824.235000", "204825.235000", "204826.235000", "204827.235000", "204828.235000", "204829.235000", "204830.235000", "204831.235000", "204832.235000", "204833.235000", "204834.235000", "204835.235000", "204836.235000", "204837.235000", "204838.235000", "204839.235000", "204840.235000", "204841.235000", "204842.235000", "204843.235000", "204844.235000", "204845.235000", "204846.235000", "204847.235000", "204848.235000", "204849.235000", "204850.235000", "204851.235000", "204852.235000", "204853.235000", "204854.235000", "204855.235000", "204856.235000", "204857.235000", "204858.235000", "204859.235000", "204900.235000", "204901.235000", "204902.235000", "204903.235000", "204904.235000", "204905.235000", "204906.235000", "204907.235000", "204908.235000", "204909.235000", "204910.235000", "204911.235000", "204912.235000", "204913.235000", "204914.235000", "204915.235000", "204916.235000", "204917.235000", "204918.235000", "204919.235000", "204920.235000", "204921.235000", "204922.235000", "204923.235000", "204924.235000", "204925.235000", "204926.235000", "204927.235000", "204928.235000", "204929.235000", "204930.235000", "204931.235000", "204932.235000", "204933.235000", "204934.235000", "204935.235000", "204936.235000", "204937.235000", "204938.235000", "204939.235000", "204940.235000", "204941.235000", "204942.235000", "204943.235000", "204944.235000", "204945.235000", "204946.235000", "204947.235000", "204948.235000", "204949.235000", "204950.235000", "204951.235000", "204952.235000", "204953.235000", "204954.235000", "204955.235000", "204956.235000", "204957.235000", "204958.235000", "204959.235000", "205000.235000", "205001.235000", "205002.235000", "205003.235000", "205004.235000", "205005.235000", "205006.235000", "205007.235000", "205008.235000", "205009.235000", "205010.235000", "205011.235000", "205012.235000", "205013.235000", "205014.235000", "205015.235000", "205016.235000", "205017.235000", "205018.235000", "205019.235000", "205020.235000", "205021.235000", "205022.235000", "205023.235000", "205024.235000", "205025.235000", "205026.235000", "205027.235000", "205028.235000", "205029.235000", "205030.235000", "205031.235000", "205032.235000", "205033.235000", "205034.235000", "205035.235000", "205036.235000", "205037.235000", "205038.235000", "205039.235000", "205040.235000", "205041.235000", "205042.235000", "205043.235000", "205044.235000", "205045.235000", "205046.235000", "205047.235000", "205048.235000", "205049.235000", "205050.235000", "205051.235000", "205052.235000", "205053.235000", "205054.235000", "205055.235000", "205056.235000", "205057.235000", "205058.235000", "205059.235000", "205100.235000", "205101.235000", "205102.235000", "205103.235000", "205104.235000", "205105.235000", "205106.235000", "205107.235000", "205108.235000", "205109.235000", "205110.235000", "205111.235000", "205112.235000", "205113.235000", "205114.235000", "205115.235000", "205116.235000", "205117.235000", "205118.235000", "205119.235000", "205120.235000", "205121.235000", "205122.235000", "205123.235000", "205124.235000", "205125.235000", "205126.235000", "205127.235000", "205128.235000", "205129.235000", "205130.235000", "205131.235000", "205132.235000", "205133.235000", "205134.235000", "205135.235000", "205136.235000", "205137.235000", "205138.235000", "205139.235000", "205140.235000", "205141.235000", "205142.235000", "205143.235000", "205144.235000", "205145.235000", "205146.235000", "205147.235000", "205148.235000", "205149.235000", "205150.235000", "205151.235000", "205152.235000", "205153.235000", "205154.235000", "205155.235000", "205156.235000", "205157.235000", "205158.235000", "205159.235000", "205200.235000", "205201.235000", "205202.235000", "205203.235000", "205204.235000", "205205.235000", "205206.235000", "205207.235000", "205208.235000", "205209.235000", "205210.235000", "205211.235000", "205212.235000", "205213.235000", "205214.235000", "205215.235000", "205216.235000", "205217.235000", "205218.235000", "205219.235000", "205220.235000", "205221.235000", "205222.235000", "205223.235000", "205224.235000", "205225.235000", "205226.235000", "205227.235000", "205228.235000", "205229.235000", "205230.235000", "205231.235000", "205232.235000", "205233.235000", "205234.235000", "205235.235000", "205236.235000", "205237.235000", "205238.235000", "205239.235000", "205240.235000", "205241.235000", "205242.235000", "205243.235000", "205244.235000", "205245.235000", "205246.235000", "205247.235000", "205248.235000", "205249.235000", "205250.235000", "205251.235000", "205252.235000", "205253.235000", "205254.235000", "205255.235000", "205256.235000", "205257.235000", "205258.235000", "205259.235000", "205300.235000", "205301.235000", "205302.235000", "205303.235000", "205304.235000", "205305.235000", "205306.235000", "205307.235000", "205308.235000", "205309.235000", "205310.235000", "205311.235000", "205312.235000", "205313.235000", "205314.235000", "205315.235000", "205316.235000", "205317.235000", "205318.235000", "205319.235000", "205320.235000", "205321.235000", "205322.235000", "205323.235000", "205324.235000", "205325.235000", "205326.235000", "205327.235000", "205328.235000", "205329.235000", "205330.235000", "205331.235000", "205332.235000", "205333.235000", "205334.235000", "205335.235000", "205336.235000", "205337.235000", "205338.235000", "205339.235000", "205340.235000", "205341.235000", "205342.235000", "205343.235000", "205344.235000", "205345.235000", "205346.235000", "205347.235000", "205348.235000", "205349.235000", "205350.235000", "205351.235000", "205352.235000", "205353.235000", "205354.235000", "205355.235000", "205356.235000", "205357.235000", "205358.235000", "205359.235000", "205400.235000", "205401.235000", "205402.235000", "205403.235000", "205404.235000", "205405.235000", "205406.235000", "205407.235000", "205408.235000", "205409.235000", "205410.235000", "205411.235000", "205412.235000", "205413.235000", "205414.235000", "205415.235000", "205416.235000", "205417.235000", "205418.235000", "205419.235000", "205420.235000", "205421.235000", "205422.235000", "205423.235000", "205424.235000", "205425.235000", "205426.235000", "205427.235000", "205428.235000", "205429.235000", "205430.235000", "205431.235000", "205432.235000", "205433.235000", "205434.235000", "205435.235000", "205436.235000", "205437.235000", "205438.235000", "205439.235000", "205440.235000", "205441.235000", "205442.235000", "205443.235000", "205444.235000", "205445.235000", "205446.235000", "205447.235000", "205448.235000", "205449.235000", "205450.235000", "205451.235000", "205452.235000", "205453.235000", "205454.235000", "205455.235000", "205456.235000", "205457.235000", "205458.235000", "205459.235000", "205500.235000", "205501.235000", "205502.235000", "205503.235000", "205504.235000", "205505.235000", "205506.235000", "205507.235000", "205508.235000", "205509.235000", "205510.235000", "205511.235000", "205512.235000", "205513.235000", "205514.235000", "205515.235000", "205516.235000", "205517.235000", "205518.235000", "205519.235000", "205520.235000", "205521.235000", "205522.235000", "205523.235000", "205524.235000", "205525.235000", "205526.235000", "205527.235000", "205528.235000", "205529.235000", "205530.235000", "205531.235000", "205532.235000", "205533.235000", "205534.235000", "205535.235000", "205536.235000", "205537.235000", "205538.235000", "205539.235000", "205540.235000", "205541.235000", "205542.235000", "205543.235000", "205544.235000", "205545.235000", "205546.235000", "205547.235000", "205548.235000", "205549.235000", "205550.235000", "205551.235000", "205552.235000", "205553.235000", "205554.235000", "205555.235000", "205556.235000", "205557.235000", "205558.235000", "205559.235000", "205600.235000", "205601.235000", "205602.235000", "205603.235000", "205604.235000", "205605.235000", "205606.235000", "205607.235000", "205608.235000", "205609.235000", "205610.235000", "205611.235000", "205612.235000", "205613.235000", "205614.235000", "205615.235000", "205616.235000", "205617.235000", "205618.235000", "205619.235000", "205620.235000", "205621.235000", "205622.235000", "205623.235000", "205624.235000", "205625.235000", "205626.235000", "205627.235000", "205628.235000", "205629.235000", "205630.235000", "205631.235000", "205632.235000", "205633.235000", "205634.235000", "205635.235000", "205636.235000", "205637.235000", "205638.235000", "205639.235000", "205640.235000", "205641.235000", "205642.235000", "205643.235000", "205644.235000", "205645.235000", "205646.235000", "205647.235000", "205648.235000", "205649.235000", "205650.235000", "205651.235000", "205652.235000", "205653.235000", "205654.235000", "205655.235000", "205656.235000", "205657.235000", "205658.235000", "205659.235000", "205700.235000", "205701.235000", "205702.235000", "205703.235000", "205704.235000", "205705.235000", "205706.235000", "205707.235000", "205708.235000", "205709.235000", "205710.235000", "205711.235000", "205712.235000", "205713.235000", "205714.235000", "205715.235000", "205716.235000", "205717.235000", "205718.235000", "205719.235000", "205720.235000", "205721.235000", "205722.235000", "205723.235000", "205724.235000", "205725.235000", "205726.235000", "205727.235000", "205728.235000", "205729.235000", "205730.235000", "205731.235000", "205732.235000", "205733.235000", "205734.235000", "205735.235000", "205736.235000", "205737.235000", "205738.235000", "205739.235000", "205740.235000", "205741.235000", "205742.235000", "205743.235000", "205744.235000", "205745.235000", "205746.235000", "205747.235000", "205748.235000", "205749.235000", "205750.235000", "205751.235000", "205752.235000", "205753.235000", "205754.235000", "205755.235000", "205756.235000", "205757.235000", "205758.235000", "205759.235000", "205800.235000", "205801.235000", "205802.235000", "205803.235000", "205804.235000", "205805.235000", "205806.235000", "205807.235000", "205808.235000", "205809.235000", "205810.235000", "205811.235000", "205812.235000", "205813.235000", "205814.235000"],
      "ContentTime": ["204758.382000", "204759.264000", "204800.219000", "204801.211000", "204802.228000", "204803.215000", "204804.205000", "204805.231000", "204806.201000", "204807.229000", "204808.266000", "204809.223000", "204810.327000", "204811.232000", "204812.227000", "204813.237000", "204814.220000", "204815.294000", "204816.204000", "204817.212000", "204818.243000", "204819.253000", "204820.232000", "204821.274000", "204822.244000", "204823.227000", "204824.230000", "204825.210000", "204826.214000", "204827.253000", "204828.230000", "204829.255000", "204830.262000", "204831.236000", "204832.237000", "204833.218000", "204834.284000", "204835.262000", "204836.217000", "204837.224000", "204838.210000", "204839.224000", "204840.220000", "204841.213000", "204842.213000", "204843.214000", "204844.232000", "204845.213000", "204846.220000", "204847.211000", "204848.225000", "204849.232000", "204850.304000", "204851.250000", "204852.237000", "204853.297000", "204854.212000", "204855.209000", "204856.221000", "204857.221000", "204858.206000", "204859.225000", "204900.214000", "204901.205000", "204902.217000", "204903.204000", "204904.291000", "204905.205000", "204906.266000", "204907.218000", "204908.218000", "204909.248000", "204910.253000", "204911.261000", "204912.200000", "204913.215000", "204914.210000", "204915.235000", "204916.211000", "204917.227000", "204918.220000", "204919.206000", "204920.231000", "204921.251000", "204922.216000", "204923.221000", "204924.216000", "204925.202000", "204926.196000", "204927.231000", "204928.212000", "204929.194000", "204930.223000", "204931.257000", "204932.216000", "204933.229000", "204934.230000", "204935.221000", "204936.242000", "204937.236000", "204938.214000", "204939.226000", "204940.225000", "204941.231000", "204942.226000", "204943.246000", "204944.196000", "204945.232000", "204946.240000", "204947.233000", "204948.235000", "204949.212000", "204950.260000", "204951.233000", "204952.225000", "204953.233000", "204954.222000", "204955.221000", "204956.232000", "204957.211000", "204958.226000", "204959.260000", "205000.225000", "205001.214000", "205002.304000", "205003.220000", "205004.210000", "205005.224000", "205006.230000", "205007.272000", "205008.229000", "205009.224000", "205010.234000", "205011.223000", "205012.237000", "205013.219000", "205014.216000", "205015.240000", "205016.216000", "205017.241000", "205018.220000", "205019.239000", "205020.232000", "205021.213000", "205022.228000", "205023.240000", "205024.224000", "205025.223000", "205026.233000", "205027.234000", "205028.223000", "205029.212000", "205030.234000", "205031.205000", "205032.206000", "205033.237000", "205034.228000", "205035.222000", "205036.231000", "205037.222000", "205038.214000", "205039.234000", "205040.226000", "205041.256000", "205042.226000", "205043.221000", "205044.329000", "205045.233000", "205046.215000", "205047.257000", "205048.216000", "205049.229000", "205050.225000", "205051.235000", "205052.201000", "205053.225000", "205054.265000", "205055.219000", "205056.214000", "205057.235000", "205058.246000", "205059.237000", "205100.268000", "205101.204000", "205102.261000", "205103.269000", "205104.238000", "205105.275000", "205106.213000", "205107.225000", "205108.237000", "205109.226000", "205110.240000", "205111.222000", "205112.269000", "205113.233000", "205114.258000", "205115.248000", "205116.249000", "205117.266000", "205118.244000", "205119.218000", "205120.258000", "205121.226000", "205122.212000", "205123.210000", "205124.218000", "205125.230000", "205126.229000", "205127.228000", "205128.243000", "205129.185000", "205130.206000", "205131.225000", "205132.231000", "205133.242000", "205134.219000", "205135.208000", "205136.246000", "205137.224000", "205138.235000", "205139.220000", "205140.226000", "205141.206000", "205142.221000", "205143.227000", "205144.209000", "205145.214000", "205146.236000", "205147.215000", "205148.229000", "205149.219000", "205150.200000", "205151.228000", "205152.216000", "205153.207000", "205154.218000", "205155.223000", "205156.214000", "205157.218000", "205158.228000", "205159.227000", "205200.261000", "205201.203000", "205202.261000", "205203.225000", "205204.233000", "205205.250000", "205206.237000", "205207.266000", "205208.202000", "205209.215000", "205210.234000", "205211.233000", "205212.234000", "205213.210000", "205214.245000", "205215.225000", "205216.257000", "205217.245000", "205218.223000", "205219.195000", "205220.236000", "205221.215000", "205222.244000", "205223.216000", "205224.223000", "205225.226000", "205226.231000", "205227.226000", "205228.240000", "205229.216000", "205230.213000", "205231.201000", "205232.210000", "205233.215000", "205234.239000", "205235.216000", "205236.211000", "205237.234000", "205238.246000", "205239.294000", "205240.219000", "205241.228000", "205242.225000", "205243.211000", "205244.231000", "205245.197000", "205246.217000", "205247.264000", "205248.231000", "205249.225000", "205250.225000", "205251.234000", "205252.232000", "205253.231000", "205254.235000", "205255.230000", "205256.211000", "205257.207000", "205258.234000", "205259.243000", "205300.255000", "205301.233000", "205302.218000", "205303.214000", "205304.241000", "205305.240000", "205306.225000", "205307.211000", "205308.216000", "205309.230000", "205310.242000", "205311.203000", "205312.232000", "205313.229000", "205314.232000", "205315.237000", "205316.220000", "205317.264000", "205318.285000", "205319.246000", "205320.223000", "205321.253000", "205322.211000", "205323.249000", "205324.241000", "205325.208000", "205326.204000", "205327.246000", "205328.252000", "205329.219000", "205330.266000", "205331.197000", "205332.210000", "205333.255000", "205334.233000", "205335.225000", "205336.239000", "205337.258000", "205338.226000", "205339.227000", "205340.235000", "205341.211000", "205342.244000", "205343.232000", "205344.221000", "205345.226000", "205346.192000", "205347.255000", "205348.225000", "205349.201000", "205350.258000", "205351.223000", "205352.228000", "205353.248000", "205354.220000", "205355.303000", "205356.224000", "205357.226000", "205358.254000", "205359.205000", "205400.189000", "205401.207000", "205402.224000", "205403.220000", "205404.254000", "205405.219000", "205406.231000", "205407.227000", "205408.212000", "205409.193000", "205410.239000", "205411.233000", "205412.233000", "205413.202000", "205414.239000", "205415.206000", "205416.263000", "205417.256000", "205418.221000", "205419.240000", "205420.204000", "205421.217000", "205422.230000", "205423.222000", "205424.229000", "205425.244000", "205426.188000", "205427.219000", "205428.217000", "205429.212000", "205430.211000", "205431.228000", "205432.209000", "205433.208000", "205434.227000", "205435.212000", "205436.213000", "205437.222000", "205438.206000", "205439.240000", "205440.224000", "205441.221000", "205442.221000", "205443.215000", "205444.261000", "205445.230000", "205446.246000", "205447.205000", "205448.219000", "205449.260000", "205450.223000", "205451.236000", "205452.215000", "205453.205000", "205454.214000", "205455.188000", "205456.216000", "205457.219000", "205458.214000", "205459.237000", "205500.224000", "205501.224000", "205502.226000", "205503.218000", "205504.214000", "205505.204000", "205506.227000", "205507.225000", "205508.236000", "205509.229000", "205510.250000", "205511.221000", "205512.224000", "205513.231000", "205514.207000", "205515.218000", "205516.199000", "205517.218000", "205518.231000", "205519.243000", "205520.222000", "205521.216000", "205522.221000", "205523.213000", "205524.218000", "205525.220000", "205526.225000", "205527.215000", "205528.213000", "205529.216000", "205530.222000", "205531.223000", "205532.258000", "205533.233000", "205534.227000", "205535.198000", "205536.218000", "205537.209000", "205538.228000", "205539.246000", "205540.204000", "205541.194000", "205542.218000", "205543.212000", "205544.178000", "205545.209000", "205546.224000", "205547.210000", "205548.221000", "205549.204000", "205550.308000", "205551.223000", "205552.200000", "205553.280000", "205554.219000", "205555.223000", "205556.208000", "205557.201000", "205558.209000", "205559.218000", "205600.210000", "205601.201000", "205602.204000", "205603.206000", "205604.207000", "205605.223000", "205606.202000", "205607.214000", "205608.230000", "205609.251000", "205610.209000", "205611.194000", "205612.223000", "205613.233000", "205614.222000", "205615.235000", "205616.230000", "205617.226000", "205618.232000", "205619.210000", "205620.214000", "205621.216000", "205622.239000", "205623.248000", "205624.223000", "205625.232000", "205626.233000", "205627.210000", "205628.215000", "205629.219000", "205630.216000", "205631.278000", "205632.210000", "205633.229000", "205634.217000", "205635.231000", "205636.244000", "205637.236000", "205638.234000", "205639.220000", "205640.219000", "205641.216000", "205642.222000", "205643.304000", "205644.252000", "205645.255000", "205646.223000", "205647.240000", "205648.251000", "205649.218000", "205650.205000", "205651.201000", "205652.250000", "205653.201000", "205654.214000", "205655.204000", "205656.193000", "205657.198000", "205658.234000", "205659.202000", "205700.192000", "205701.182000", "205702.215000", "205703.218000", "205704.210000", "205705.207000", "205706.214000", "205707.202000", "205708.216000", "205709.226000", "205710.211000", "205711.249000", "205712.220000", "205713.190000", "205714.223000", "205715.233000", "205716.177000", "205717.228000", "205718.257000", "205719.258000", "205720.220000", "205721.245000", "205722.217000", "205723.226000", "205724.222000", "205725.225000", "205726.236000", "205727.226000", "205728.237000", "205729.214000", "205730.216000", "205731.216000", "205732.200000", "205733.186000", "205734.238000", "205735.210000", "205736.205000", "205737.224000", "205738.249000", "205739.199000", "205740.216000", "205741.201000", "205742.214000", "205743.214000", "205744.304000", "205745.263000", "205746.215000", "205747.209000", "205748.198000", "205749.205000", "205750.203000", "205751.218000", "205752.220000", "205753.216000", "205754.217000", "205755.215000", "205756.212000", "205757.189000", "205758.206000", "205759.236000", "205800.234000", "205801.202000", "205802.201000", "205803.202000", "205804.192000", "205805.188000", "205806.214000", "205807.199000", "205808.294000", "205809.211000", "205810.225000", "205811.290000", "205812.312000", "205813.220000", "205814.222000", "205815.264000"],
