{
  "AcquisitionMatrixPE": 96,
  "AcquisitionNumber": 1,
  "AcquisitionTime": "21:43:58.122500",
  "BandwidthPerPixelPhaseEncode": 18.939,
  "BaseResolution": 96,
  "BodyPartExamined": "BRAIN",
  "ConsistencyInfo": "N4_VE11C_LATEST_20160120",
  "ConversionSoftware": "dcm2niix",
  "ConversionSoftwareVersion": "v1.0.20190902",
  "DerivedVendorReportedEchoSpacing": 0.000550011,
  "DeviceSerialNumber": "66112",
  "DwellTime": 2.2e-06,
  "EchoTime": 0.033,
  "EchoTrainLength": 96,
  "EffectiveEchoSpacing": 0.000550011,
  "FlipAngle": 59,
  "ImageOrientationPatientDICOM": [0.998591, -0.0383472, -0.0366847, 0.0385365, 0.999247, 0.00446744],
  "ImageType": [
    "ORIGINAL",
    "PRIMARY",
    "FMRI",
    "NONE",
    "ND",
    "NORM",
    "MOSAIC"
],
  "ImagingFrequency": 123.252,
  "InPlanePhaseEncodingDirectionDICOM": "COL",
  "InstitutionAddress": "Maynard_3_Hanover_NH_US_03755",
  "InstitutionName": "Dartmouth_College_-_PBS",
  "InstitutionalDepartmentName": "Department",
  "MRAcquisitionType": "2D",
  "MagneticFieldStrength": 3,
  "Manufacturer": "Siemens",
  "ManufacturersModelName": "Prisma",
  "Modality": "MR",
  "MultibandAccelerationFactor": 4,
  "PartialFourier": 1,
  "PatientPosition": "HFS",
  "PercentPhaseFOV": 100,
  "PhaseEncodingDirection": "j-",
  "PhaseEncodingSteps": 96,
  "PhaseResolution": 1,
  "PixelBandwidth": 2365,
  "ProcedureStepDescription": "Gobbini_Matteo_1037_budapest",
  "ProtocolName": "func_run-04_task-movie",
  "PulseSequenceDetails": "%SiemensSeq%_ep2d_bold",
  "ReceiveCoilActiveElements": "HEA;HEP",
  "ReceiveCoilName": "Head_32",
  "ReconMatrixPE": 96,
  "RefLinesPE": 12,
  "RepetitionTime": 1,
  "SAR": 0.0533446,
  "ScanOptions": "FS",
  "ScanningSequence": "EP",
  "SequenceName": "_epfid2d1_96",
  "SequenceVariant": "SK",
  "SeriesDescription": "func_run-04_task-movie",
  "SeriesNumber": 29,
  "ShimSetting": [4147, -7713, -7305, 504, -46, -292, 20, 78],
  "SliceThickness": 2.5,
  "SliceTiming": [0.735, 0, 0.49, 0.0825, 0.5725, 0.1625, 0.6525, 0.3275, 0.8175, 0.4075, 0.8975, 0.245, 0.735, 0, 0.49, 0.0825, 0.5725, 0.1625, 0.6525, 0.3275, 0.8175, 0.4075, 0.8975, 0.245, 0.735, 0, 0.49, 0.0825, 0.5725, 0.1625, 0.6525, 0.3275, 0.8175, 0.4075, 0.8975, 0.245, 0.735, 0, 0.49, 0.0825, 0.5725, 0.1625, 0.6525, 0.3275, 0.8175, 0.4075, 0.8975, 0.245],
  "SoftwareVersions": "syngo_MR_E11",
  "SpacingBetweenSlices": 2.5,
  "StationName": "AWP66112",
  "TaskName": "movie",
  "TotalReadoutTime": 0.0522511,
  "TxRefAmp": 260.846,
  "dcmmeta_affine": [
    [-2.4964771270751953, 0.09634131193161011, -0.09121435880661011, 117.41011047363281],
    [0.09586801379919052, 2.4981179237365723, 0.014687109738588333, -110.69595336914062],
    [-0.09171167761087418, -0.01116859819740057, 2.4982922077178955, -69.83658599853516],
    [0.0, 0.0, 0.0, 1.0]
],
  "dcmmeta_reorient_transform": [
    [0.0, -1.0, 0.0, 95.0],
    [1.0, 0.0, 0.0, 0.0],
    [0.0, 0.0, 1.0, 0.0],
    [0.0, 0.0, 0.0, 1.0]
],
  "dcmmeta_shape": [96, 96, 48, 618],
  "dcmmeta_slice_dim": 2,
  "dcmmeta_version": 0.6,
  "global": {
    "const": {
      "AccessionNumber": "A001665",
      "AcquisitionMatrix": [96, 0, 0, 96],
      "AngioFlag": "N",
      "BitsAllocated": 16,
      "BitsStored": 12,
      "BodyPartExamined": "BRAIN",
      "Columns": 672,
      "EchoNumbers": 1,
      "EchoTime": 33.0,
      "EchoTrainLength": 96,
      "FlipAngle": 59.0,
      "HighBit": 11,
      "ImageOrientationPatient": [0.99859087054588, -0.0383472041201, -0.0366846725295, 0.03853652607023, 0.99924720572214, 0.00446743941617],
      "ImagePositionPatient": [-873.29426384799, -818.47325922689, -47.701196059783],
      "ImageType": [
        "ORIGINAL",
        "PRIMARY",
        "FMRI",
        "NONE",
        "ND",
        "NORM",
        "MOSAIC"
],
      "ImagedNucleus": "1H",
      "ImagingFrequency": 123.252285,
      "InPlanePhaseEncodingDirection": "COL",
      "MRAcquisitionType": "2D",
      "MagneticFieldStrength": 3.0,
      "Manufacturer": "SIEMENS",
      "ManufacturerModelName": "Prisma",
      "Modality": "MR",
      "NumberOfAverages": 1.0,
      "NumberOfPhaseEncodingSteps": 96,
      "PercentPhaseFieldOfView": 100.0,
      "PercentSampling": 100.0,
      "PerformedProcedureStepStartTime": "205658.861000",
      "PhotometricInterpretation": "MONOCHROME2",
      "PixelBandwidth": 2365.0,
      "PixelRepresentation": 0,
      "PixelSpacing": [2.5, 2.5],
      "ProtocolName": "func_run-04_task-movie",
      "RepetitionTime": 1000.0,
      "Rows": 672,
      "SAR": 0.05334455361591,
      "SamplesPerPixel": 1,
      "ScanOptions": "FS",
      "ScanningSequence": "EP",
      "SequenceName": "*epfid2d1_96",
      "SequenceVariant": "SK",
      "SeriesDescription": "func_run-04_task-movie",
      "SeriesNumber": 29,
      "SeriesTime": "214359.173000",
      "SliceLocation": -74.722998672162,
      "SliceThickness": 2.5,
      "SmallestImagePixelValue": 0,
      "SoftwareVersions": "syngo MR E11",
      "SpacingBetweenSlices": 2.4999999702463,
      "SpecificCharacterSet": "ISO_IR 100",
      "StudyID": "1",
      "StudyTime": "205658.792000",
      "TransmitCoilName": "Body",
      "VariableFlipAngleFlag": "N",
      "WindowCenterWidthExplanation": "Algo1",
      "dBdt": 0.0},
    "slices": {}
  },
  "time": {
    "samples": {
      "AcquisitionNumber": [1, 2, 3, 4, 5, 6, 7, 8, 9, 10, 11, 12, 13, 14, 15, 16, 17, 18, 19, 20, 21, 22, 23, 24, 25, 26, 27, 28, 29, 30, 31, 32, 33, 34, 35, 36, 37, 38, 39, 40, 41, 42, 43, 44, 45, 46, 47, 48, 49, 50, 51, 52, 53, 54, 55, 56, 57, 58, 59, 60, 61, 62, 63, 64, 65, 66, 67, 68, 69, 70, 71, 72, 73, 74, 75, 76, 77, 78, 79, 80, 81, 82, 83, 84, 85, 86, 87, 88, 89, 90, 91, 92, 93, 94, 95, 96, 97, 98, 99, 100, 101, 102, 103, 104, 105, 106, 107, 108, 109, 110, 111, 112, 113, 114, 115, 116, 117, 118, 119, 120, 121, 122, 123, 124, 125, 126, 127, 128, 129, 130, 131, 132, 133, 134, 135, 136, 137, 138, 139, 140, 141, 142, 143, 144, 145, 146, 147, 148, 149, 150, 151, 152, 153, 154, 155, 156, 157, 158, 159, 160, 161, 162, 163, 164, 165, 166, 167, 168, 169, 170, 171, 172, 173, 174, 175, 176, 177, 178, 179, 180, 181, 182, 183, 184, 185, 186, 187, 188, 189, 190, 191, 192, 193, 194, 195, 196, 197, 198, 199, 200, 201, 202, 203, 204, 205, 206, 207, 208, 209, 210, 211, 212, 213, 214, 215, 216, 217, 218, 219, 220, 221, 222, 223, 224, 225, 226, 227, 228, 229, 230, 231, 232, 233, 234, 235, 236, 237, 238, 239, 240, 241, 242, 243, 244, 245, 246, 247, 248, 249, 250, 251, 252, 253, 254, 255, 256, 257, 258, 259, 260, 261, 262, 263, 264, 265, 266, 267, 268, 269, 270, 271, 272, 273, 274, 275, 276, 277, 278, 279, 280, 281, 282, 283, 284, 285, 286, 287, 288, 289, 290, 291, 292, 293, 294, 295, 296, 297, 298, 299, 300, 301, 302, 303, 304, 305, 306, 307, 308, 309, 310, 311, 312, 313, 314, 315, 316, 317, 318, 319, 320, 321, 322, 323, 324, 325, 326, 327, 328, 329, 330, 331, 332, 333, 334, 335, 336, 337, 338, 339, 340, 341, 342, 343, 344, 345, 346, 347, 348, 349, 350, 351, 352, 353, 354, 355, 356, 357, 358, 359, 360, 361, 362, 363, 364, 365, 366, 367, 368, 369, 370, 371, 372, 373, 374, 375, 376, 377, 378, 379, 380, 381, 382, 383, 384, 385, 386, 387, 388, 389, 390, 391, 392, 393, 394, 395, 396, 397, 398, 399, 400, 401, 402, 403, 404, 405, 406, 407, 408, 409, 410, 411, 412, 413, 414, 415, 416, 417, 418, 419, 420, 421, 422, 423, 424, 425, 426, 427, 428, 429, 430, 431, 432, 433, 434, 435, 436, 437, 438, 439, 440, 441, 442, 443, 444, 445, 446, 447, 448, 449, 450, 451, 452, 453, 454, 455, 456, 457, 458, 459, 460, 461, 462, 463, 464, 465, 466, 467, 468, 469, 470, 471, 472, 473, 474, 475, 476, 477, 478, 479, 480, 481, 482, 483, 484, 485, 486, 487, 488, 489, 490, 491, 492, 493, 494, 495, 496, 497, 498, 499, 500, 501, 502, 503, 504, 505, 506, 507, 508, 509, 510, 511, 512, 513, 514, 515, 516, 517, 518, 519, 520, 521, 522, 523, 524, 525, 526, 527, 528, 529, 530, 531, 532, 533, 534, 535, 536, 537, 538, 539, 540, 541, 542, 543, 544, 545, 546, 547, 548, 549, 550, 551, 552, 553, 554, 555, 556, 557, 558, 559, 560, 561, 562, 563, 564, 565, 566, 567, 568, 569, 570, 571, 572, 573, 574, 575, 576, 577, 578, 579, 580, 581, 582, 583, 584, 585, 586, 587, 588, 589, 590, 591, 592, 593, 594, 595, 596, 597, 598, 599, 600, 601, 602, 603, 604, 605, 606, 607, 608, 609, 610, 611, 612, 613, 614, 615, 616, 617, 618],
      "AcquisitionTime": ["214358.122500", "214359.122500", "214400.122500", "214401.122500", "214402.122500", "214403.122500", "214404.122500", "214405.122500", "214406.122500", "214407.122500", "214408.122500", "214409.122500", "214410.122500", "214411.122500", "214412.122500", "214413.122500", "214414.122500", "214415.122500", "214416.122500", "214417.122500", "214418.122500", "214419.122500", "214420.122500", "214421.122500", "214422.122500", "214423.122500", "214424.122500", "214425.122500", "214426.122500", "214427.122500", "214428.122500", "214429.122500", "214430.122500", "214431.122500", "214432.122500", "214433.122500", "214434.122500", "214435.122500", "214436.122500", "214437.122500", "214438.122500", "214439.122500", "214440.122500", "214441.122500", "214442.122500", "214443.122500", "214444.122500", "214445.122500", "214446.122500", "214447.122500", "214448.122500", "214449.122500", "214450.122500", "214451.122500", "214452.122500", "214453.122500", "214454.122500", "214455.122500", "214456.122500", "214457.122500", "214458.122500", "214459.122500", "214500.122500", "214501.122500", "214502.122500", "214503.122500", "214504.122500", "214505.122500", "214506.122500", "214507.122500", "214508.122500", "214509.122500", "214510.122500", "214511.122500", "214512.122500", "214513.122500", "214514.122500", "214515.122500", "214516.122500", "214517.122500", "214518.122500", "214519.122500", "214520.122500", "214521.122500", "214522.122500", "214523.122500", "214524.122500", "214525.122500", "214526.122500", "214527.122500", "214528.122500", "214529.122500", "214530.122500", "214531.122500", "214532.122500", "214533.122500", "214534.122500", "214535.122500", "214536.122500", "214537.122500", "214538.122500", "214539.122500", "214540.122500", "214541.122500", "214542.122500", "214543.122500", "214544.122500", "214545.122500", "214546.122500", "214547.122500", "214548.122500", "214549.122500", "214550.122500", "214551.122500", "214552.122500", "214553.122500", "214554.122500", "214555.122500", "214556.122500", "214557.122500", "214558.122500", "214559.122500", "214600.122500", "214601.122500", "214602.122500", "214603.122500", "214604.122500", "214605.122500", "214606.122500", "214607.122500", "214608.122500", "214609.122500", "214610.122500", "214611.122500", "214612.122500", "214613.122500", "214614.122500", "214615.122500", "214616.122500", "214617.122500", "214618.122500", "214619.122500", "214620.122500", "214621.122500", "214622.122500", "214623.122500", "214624.122500", "214625.122500", "214626.122500", "214627.122500", "214628.122500", "214629.122500", "214630.122500", "214631.122500", "214632.122500", "214633.122500", "214634.122500", "214635.122500", "214636.122500", "214637.122500", "214638.122500", "214639.122500", "214640.122500", "214641.122500", "214642.122500", "214643.122500", "214644.122500", "214645.122500", "214646.122500", "214647.122500", "214648.122500", "214649.122500", "214650.122500", "214651.122500", "214652.122500", "214653.122500", "214654.122500", "214655.122500", "214656.122500", "214657.122500", "214658.122500", "214659.122500", "214700.122500", "214701.122500", "214702.122500", "214703.122500", "214704.122500", "214705.122500", "214706.122500", "214707.122500", "214708.122500", "214709.122500", "214710.122500", "214711.122500", "214712.122500", "214713.122500", "214714.122500", "214715.122500", "214716.122500", "214717.122500", "214718.122500", "214719.122500", "214720.122500", "214721.122500", "214722.122500", "214723.122500", "214724.122500", "214725.122500", "214726.122500", "214727.122500", "214728.122500", "214729.122500", "214730.122500", "214731.122500", "214732.122500", "214733.122500", "214734.122500", "214735.122500", "214736.122500", "214737.122500", "214738.122500", "214739.122500", "214740.122500", "214741.122500", "214742.122500", "214743.122500", "214744.122500", "214745.122500", "214746.122500", "214747.122500", "214748.122500", "214749.122500", "214750.122500", "214751.122500", "214752.122500", "214753.122500", "214754.122500", "214755.122500", "214756.122500", "214757.122500", "214758.122500", "214759.122500", "214800.122500", "214801.122500", "214802.122500", "214803.122500", "214804.122500", "214805.122500", "214806.122500", "214807.122500", "214808.122500", "214809.122500", "214810.122500", "214811.122500", "214812.122500", "214813.122500", "214814.122500", "214815.122500", "214816.122500", "214817.122500", "214818.122500", "214819.122500", "214820.122500", "214821.122500", "214822.122500", "214823.122500", "214824.122500", "214825.122500", "214826.122500", "214827.122500", "214828.122500", "214829.122500", "214830.122500", "214831.122500", "214832.122500", "214833.122500", "214834.122500", "214835.122500", "214836.122500", "214837.122500", "214838.122500", "214839.122500", "214840.122500", "214841.122500", "214842.122500", "214843.122500", "214844.122500", "214845.122500", "214846.122500", "214847.122500", "214848.122500", "214849.122500", "214850.122500", "214851.122500", "214852.122500", "214853.122500", "214854.122500", "214855.122500", "214856.122500", "214857.122500", "214858.122500", "214859.122500", "214900.122500", "214901.122500", "214902.122500", "214903.122500", "214904.122500", "214905.122500", "214906.122500", "214907.122500", "214908.122500", "214909.122500", "214910.122500", "214911.122500", "214912.122500", "214913.122500", "214914.122500", "214915.122500", "214916.122500", "214917.122500", "214918.122500", "214919.122500", "214920.122500", "214921.122500", "214922.122500", "214923.122500", "214924.122500", "214925.122500", "214926.122500", "214927.122500", "214928.122500", "214929.122500", "214930.122500", "214931.122500", "214932.122500", "214933.122500", "214934.122500", "214935.122500", "214936.122500", "214937.122500", "214938.122500", "214939.122500", "214940.122500", "214941.122500", "214942.122500", "214943.122500", "214944.122500", "214945.122500", "214946.122500", "214947.122500", "214948.122500", "214949.122500", "214950.122500", "214951.122500", "214952.122500", "214953.122500", "214954.122500", "214955.122500", "214956.122500", "214957.122500", "214958.122500", "214959.122500", "215000.122500", "215001.122500", "215002.122500", "215003.122500", "215004.122500", "215005.122500", "215006.122500", "215007.122500", "215008.122500", "215009.122500", "215010.122500", "215011.122500", "215012.122500", "215013.122500", "215014.122500", "215015.122500", "215016.122500", "215017.122500", "215018.122500", "215019.122500", "215020.122500", "215021.122500", "215022.122500", "215023.122500", "215024.122500", "215025.122500", "215026.122500", "215027.122500", "215028.122500", "215029.122500", "215030.122500", "215031.122500", "215032.122500", "215033.122500", "215034.122500", "215035.122500", "215036.122500", "215037.122500", "215038.122500", "215039.122500", "215040.122500", "215041.122500", "215042.122500", "215043.122500", "215044.122500", "215045.122500", "215046.122500", "215047.122500", "215048.122500", "215049.122500", "215050.122500", "215051.122500", "215052.122500", "215053.122500", "215054.122500", "215055.122500", "215056.122500", "215057.122500", "215058.122500", "215059.122500", "215100.122500", "215101.122500", "215102.122500", "215103.122500", "215104.122500", "215105.122500", "215106.122500", "215107.122500", "215108.122500", "215109.122500", "215110.122500", "215111.122500", "215112.122500", "215113.122500", "215114.122500", "215115.122500", "215116.122500", "215117.122500", "215118.122500", "215119.122500", "215120.122500", "215121.122500", "215122.122500", "215123.122500", "215124.122500", "215125.122500", "215126.122500", "215127.122500", "215128.122500", "215129.122500", "215130.122500", "215131.122500", "215132.122500", "215133.122500", "215134.122500", "215135.122500", "215136.122500", "215137.122500", "215138.122500", "215139.122500", "215140.122500", "215141.122500", "215142.122500", "215143.122500", "215144.122500", "215145.122500", "215146.122500", "215147.122500", "215148.122500", "215149.122500", "215150.122500", "215151.122500", "215152.122500", "215153.122500", "215154.122500", "215155.122500", "215156.122500", "215157.122500", "215158.122500", "215159.122500", "215200.122500", "215201.122500", "215202.122500", "215203.122500", "215204.122500", "215205.122500", "215206.122500", "215207.122500", "215208.122500", "215209.122500", "215210.122500", "215211.122500", "215212.122500", "215213.122500", "215214.122500", "215215.122500", "215216.122500", "215217.122500", "215218.122500", "215219.122500", "215220.122500", "215221.122500", "215222.122500", "215223.122500", "215224.122500", "215225.122500", "215226.122500", "215227.122500", "215228.122500", "215229.122500", "215230.122500", "215231.122500", "215232.122500", "215233.122500", "215234.122500", "215235.122500", "215236.122500", "215237.122500", "215238.122500", "215239.122500", "215240.122500", "215241.122500", "215242.122500", "215243.122500", "215244.122500", "215245.122500", "215246.122500", "215247.122500", "215248.122500", "215249.122500", "215250.122500", "215251.122500", "215252.122500", "215253.122500", "215254.122500", "215255.122500", "215256.122500", "215257.122500", "215258.122500", "215259.122500", "215300.122500", "215301.122500", "215302.122500", "215303.122500", "215304.122500", "215305.122500", "215306.122500", "215307.122500", "215308.122500", "215309.122500", "215310.122500", "215311.122500", "215312.122500", "215313.122500", "215314.122500", "215315.122500", "215316.122500", "215317.122500", "215318.122500", "215319.122500", "215320.122500", "215321.122500", "215322.122500", "215323.122500", "215324.122500", "215325.122500", "215326.122500", "215327.122500", "215328.122500", "215329.122500", "215330.122500", "215331.122500", "215332.122500", "215333.122500", "215334.122500", "215335.122500", "215336.122500", "215337.122500", "215338.122500", "215339.122500", "215340.122500", "215341.122500", "215342.122500", "215343.122500", "215344.122500", "215345.122500", "215346.122500", "215347.122500", "215348.122500", "215349.122500", "215350.122500", "215351.122500", "215352.122500", "215353.122500", "215354.122500", "215355.122500", "215356.122500", "215357.122500", "215358.122500", "215359.122500", "215400.122500", "215401.122500", "215402.122500", "215403.122500", "215404.122500", "215405.122500", "215406.122500", "215407.122500", "215408.122500", "215409.122500", "215410.122500", "215411.122500", "215412.122500", "215413.122500", "215414.122500", "215415.122500"],
      "ContentTime": ["214359.177000", "214400.026000", "214401.020000", "214402.059000", "214403.034000", "214404.028000", "214405.048000", "214406.066000", "214407.028000", "214408.019000", "214409.038000", "214410.037000", "214411.030000", "214412.077000", "214413.053000", "214414.017000", "214415.062000", "214416.050000", "214417.063000", "214417.993000", "214419.101000", "214420.025000", "214421.049000", "214422.011000", "214423.041000", "214424.017000", "214425.020000", "214426.019000", "214427.030000", "214428.062000", "214429.058000", "214430.038000", "214431.019000", "214432.056000", "214433.023000", "214434.037000", "214435.021000", "214436.029000", "214437.022000", "214438.018000", "214439.008000", "214440.026000", "214441.016000", "214442.019000", "214443.001000", "214444.024000", "214445.038000", "214446.038000", "214447.020000", "214448.018000", "214449.043000", "214450.020000", "214451.016000", "214452.074000", "214453.037000", "214454.022000", "214455.009000", "214456.069000", "214457.064000", "214458.017000", "214459.040000", "214500.030000", "214501.029000", "214502.075000", "214503.023000", "214504.035000", "214505.037000", "214506.086000", "214507.017000", "214508.036000", "214509.011000", "214510.017000", "214511.003000", "214512.020000", "214513.025000", "214514.050000", "214514.993000", "214516.004000", "214517.010000", "214518.024000", "214519.048000", "214520.044000", "214520.991000", "214522.021000", "214523.021000", "214524.022000", "214525.044000", "214526.028000", "214527.107000", "214528.028000", "214529.052000", "214530.016000", "214531.039000", "214532.033000", "214533.017000", "214534.029000", "214535.012000", "214536.002000", "214537.016000", "214538.033000", "214539.024000", "214540.015000", "214541.032000", "214542.025000", "214543.026000", "214544.036000", "214545.041000", "214546.054000", "214547.040000", "214548.032000", "214549.087000", "214550.039000", "214551.032000", "214552.052000", "214553.046000", "214554.050000", "214555.038000", "214556.037000", "214557.012000", "214558.013000", "214559.033000", "214600.004000", "214601.065000", "214602.043000", "214603.026000", "214604.089000", "214605.043000", "214605.996000", "214607.023000", "214608.039000", "214609.018000", "214610.031000", "214611.038000", "214612.035000", "214613.077000", "214614.041000", "214615.017000", "214616.029000", "214617.085000", "214618.008000", "214619.044000", "214620.057000", "214621.024000", "214622.049000", "214623.077000", "214624.120000", "214625.046000", "214626.114000", "214627.067000", "214628.037000", "214629.031000", "214630.024000", "214631.045000", "214632.027000", "214633.031000", "214634.044000", "214635.038000", "214636.108000", "214637.144000", "214638.110000", "214639.051000", "214640.045000", "214641.038000", "214642.035000", "214643.037000", "214644.052000", "214645.041000", "214646.028000", "214647.037000", "214648.037000", "214649.035000", "214650.015000", "214651.036000", "214652.027000", "214653.028000", "214654.044000", "214655.023000", "214656.029000", "214657.023000", "214658.024000", "214659.016000", "214700.033000", "214701.038000", "214702.091000", "214703.020000", "214704.055000", "214705.027000", "214706.069000", "214707.040000", "214708.036000", "214709.058000", "214710.017000", "214711.032000", "214712.073000", "214713.038000", "214714.094000", "214715.063000", "214716.029000", "214717.022000", "214717.996000", "214719.034000", "214720.031000", "214721.027000", "214722.048000", "214723.013000", "214724.029000", "214725.028000", "214726.025000", "214727.038000", "214728.071000", "214729.024000", "214730.018000", "214731.027000", "214732.029000", "214733.031000", "214734.029000", "214735.010000", "214736.046000", "214737.083000", "214738.036000", "214739.003000", "214740.062000", "214741.020000", "214742.004000", "214743.062000", "214744.033000", "214745.013000", "214746.031000", "214747.032000", "214748.037000", "214749.011000", "214750.031000", "214751.019000", "214752.007000", "214753.032000", "214754.059000", "214755.028000", "214756.032000", "214757.012000", "214758.009000", "214759.023000", "214800.050000", "214801.051000", "214802.015000", "214803.017000", "214804.022000", "214805.075000", "214806.027000", "214807.028000", "214808.030000", "214809.014000", "214810.041000", "214811.032000", "214812.017000", "214813.024000", "214814.026000", "214815.036000", "214816.030000", "214817.025000", "214818.041000", "214819.029000", "214820.001000", "214821.007000", "214822.012000", "214823.017000", "214824.024000", "214825.037000", "214826.027000", "214827.035000", "214828.081000", "214829.021000", "214830.027000", "214831.011000", "214832.046000", "214833.106000", "214834.018000", "214835.099000", "214836.071000", "214837.056000", "214838.060000", "214839.013000", "214840.046000", "214841.037000", "214842.038000", "214843.038000", "214844.017000", "214845.029000", "214846.040000", "214847.013000", "214848.039000", "214849.019000", "214850.004000", "214851.114000", "214851.977000", "214853.023000", "214854.032000", "214855.032000", "214856.051000", "214857.067000", "214858.028000", "214859.040000", "214900.020000", "214901.034000", "214902.022000", "214903.028000", "214904.027000", "214905.015000", "214906.020000", "214907.040000", "214908.025000", "214909.097000", "214910.027000", "214911.018000", "214912.021000", "214913.015000", "214914.021000", "214915.028000", "214916.011000", "214917.062000", "214918.029000", "214919.027000", "214920.027000", "214921.036000", "214922.025000", "214923.011000", "214924.050000", "214925.055000", "214926.130000", "214927.080000", "214928.020000", "214929.031000", "214930.065000", "214931.041000", "214932.023000", "214933.017000", "214934.044000", "214935.023000", "214936.078000", "214937.031000", "214938.018000", "214939.077000", "214940.031000", "214941.018000", "214942.032000", "214943.094000", "214944.086000", "214945.026000", "214946.039000", "214947.046000", "214948.017000", "214949.010000", "214950.053000", "214951.006000", "214952.029000", "214953.025000", "214954.054000", "214955.103000", "214956.050000", "214957.003000", "214958.017000", "214959.035000", "215000.025000", "215001.033000", "215002.029000", "215003.027000", "215004.024000", "215005.009000", "215006.026000", "215007.054000", "215008.061000", "215009.046000", "215010.008000", "215011.037000", "215012.037000", "215013.010000", "215014.036000", "215015.072000", "215016.086000", "215017.028000", "215018.027000", "215019.026000", "215020.007000", "215021.031000", "215022.030000", "215023.016000", "215024.026000", "215025.033000", "215026.040000", "215027.012000", "215028.011000", "215029.029000", "215030.026000", "215031.103000", "215032.084000", "215033.086000", "215034.023000", "215035.043000", "215036.036000", "215037.044000", "215038.042000", "215039.009000", "215040.026000", "215041.064000", "215042.083000", "215043.064000", "215044.023000", "215045.019000", "215046.042000", "215047.031000", "215048.030000", "215049.035000", "215050.013000", "215051.066000", "215052.087000", "215053.034000", "215054.009000", "215055.045000", "215056.029000", "215057.034000", "215058.030000", "215059.034000", "215100.034000", "215101.087000", "215102.031000", "215103.023000", "215104.024000", "215105.027000", "215106.022000", "215107.031000", "215108.026000", "215109.035000", "215110.020000", "215111.017000", "215112.047000", "215113.040000", "215114.035000", "215115.058000", "215116.029000", "215117.029000", "215118.031000", "215119.037000", "215120.043000", "215121.032000", "215122.031000", "215123.029000", "215124.029000", "215125.003000", "215126.020000", "215127.021000", "215128.047000", "215129.042000", "215130.032000", "215131.035000", "215132.039000", "215133.099000", "215134.040000", "215135.036000", "215136.023000", "215137.018000", "215138.045000", "215139.017000", "215140.031000", "215141.021000", "215142.004000", "215143.028000", "215144.036000", "215145.016000", "215146.041000", "215147.022000", "215148.030000", "215149.097000", "215150.020000", "215151.013000", "215152.008000", "215153.054000", "215154.042000", "215155.065000", "215156.016000", "215157.030000", "215158.048000", "215159.019000", "215200.042000", "215201.007000", "215202.091000", "215203.028000", "215204.075000", "215205.039000", "215206.052000", "215207.043000", "215208.032000", "215209.023000", "215210.072000", "215211.024000", "215212.038000", "215213.018000", "215214.003000", "215215.025000", "215216.061000", "215217.028000", "215218.051000", "215219.026000", "215220.036000", "215221.036000", "215222.036000", "215223.028000", "215224.058000", "215225.080000", "215226.053000", "215227.056000", "215228.091000", "215229.039000", "215230.071000", "215231.018000", "215232.052000", "215233.030000", "215234.004000", "215235.024000", "215236.018000", "215237.028000", "215238.007000", "215239.019000", "215240.025000", "215241.019000", "215242.024000", "215243.024000", "215244.025000", "215245.035000", "215246.070000", "215247.012000", "215248.007000", "215249.053000", "215249.998000", "215251.036000", "215252.023000", "215253.057000", "215254.042000", "215255.029000", "215256.028000", "215256.998000", "215258.024000", "215259.029000", "215300.037000", "215301.085000", "215302.032000", "215303.061000", "215304.021000", "215305.033000", "215306.025000", "215307.090000", "215308.016000", "215309.017000", "215310.028000", "215311.020000", "215312.051000", "215313.004000", "215314.022000", "215315.005000", "215316.022000", "215317.012000", "215318.111000", "215319.021000", "215320.033000", "215321.077000", "215322.083000", "215323.012000", "215323.992000", "215325.012000", "215326.054000", "215326.988000", "215328.037000", "215329.046000", "215330.012000", "215331.011000", "215332.066000", "215332.994000", "215334.025000", "215335.027000", "215336.024000", "215337.013000", "215338.030000", "215339.017000", "215340.008000", "215341.024000", "215342.022000", "215343.008000", "215344.026000", "215345.013000", "215345.993000", "215347.023000", "215348.035000", "215349.004000", "215350.003000", "215351.021000", "215352.024000", "215353.060000", "215354.035000", "215355.036000", "215356.035000", "215357.107000", "215358.020000", "215359.030000", "215400.018000", "215401.004000", "215402.030000", "215403.028000", "215403.987000", "215405.012000", "215405.971000", "215407.014000", "215408.031000", "215409.028000", "215410.019000", "215411.028000", "215411.993000", "215413.062000", "215414.015000", "215415.039000", "215416.073000"],
