{
  "AcquisitionMatrixPE": 96,
  "AcquisitionNumber": 1,
  "AcquisitionTime": "21:34:34.470000",
  "BandwidthPerPixelPhaseEncode": 18.939,
  "BaseResolution": 96,
  "BodyPartExamined": "BRAIN",
  "ConsistencyInfo": "N4_VE11C_LATEST_20160120",
  "ConversionSoftware": "dcm2niix",
  "ConversionSoftwareVersion": "v1.0.20190902",
  "DerivedVendorReportedEchoSpacing": 0.000550011,
  "DeviceSerialNumber": "66112",
  "DwellTime": 2.2e-06,
  "EchoTime": 0.033,
  "EchoTrainLength": 96,
  "EffectiveEchoSpacing": 0.000550011,
  "FlipAngle": 59,
  "ImageOrientationPatientDICOM": [0.998591, -0.0383472, -0.0366847, 0.0385365, 0.999247, 0.00446744],
  "ImageType": [
    "ORIGINAL",
    "PRIMARY",
    "FMRI",
    "NONE",
    "ND",
    "NORM",
    "MOSAIC"
],
  "ImagingFrequency": 123.252,
  "InPlanePhaseEncodingDirectionDICOM": "COL",
  "InstitutionAddress": "Maynard_3_Hanover_NH_US_03755",
  "InstitutionName": "Dartmouth_College_-_PBS",
  "InstitutionalDepartmentName": "Department",
  "MRAcquisitionType": "2D",
  "MagneticFieldStrength": 3,
  "Manufacturer": "Siemens",
  "ManufacturersModelName": "Prisma",
  "Modality": "MR",
  "MultibandAccelerationFactor": 4,
  "PartialFourier": 1,
  "PatientPosition": "HFS",
  "PercentPhaseFOV": 100,
  "PhaseEncodingDirection": "j-",
  "PhaseEncodingSteps": 96,
  "PhaseResolution": 1,
  "PixelBandwidth": 2365,
  "ProcedureStepDescription": "Gobbini_Matteo_1037_budapest",
  "ProtocolName": "func_run-03_task-movie",
  "PulseSequenceDetails": "%SiemensSeq%_ep2d_bold",
  "ReceiveCoilActiveElements": "HEA;HEP",
  "ReceiveCoilName": "Head_32",
  "ReconMatrixPE": 96,
  "RefLinesPE": 12,
  "RepetitionTime": 1,
  "SAR": 0.0533014,
  "ScanOptions": "FS",
  "ScanningSequence": "EP",
  "SequenceName": "_epfid2d1_96",
  "SequenceVariant": "SK",
  "SeriesDescription": "func_run-03_task-movie",
  "SeriesNumber": 22,
  "ShimSetting": [4147, -7713, -7305, 504, -46, -292, 20, 78],
  "SliceThickness": 2.5,
  "SliceTiming": [0.735, 0, 0.49, 0.0825, 0.5725, 0.165, 0.655, 0.3275, 0.8175, 0.41, 0.9, 0.245, 0.735, 0, 0.49, 0.0825, 0.5725, 0.165, 0.655, 0.3275, 0.8175, 0.41, 0.9, 0.245, 0.735, 0, 0.49, 0.0825, 0.5725, 0.165, 0.655, 0.3275, 0.8175, 0.41, 0.9, 0.245, 0.735, 0, 0.49, 0.0825, 0.5725, 0.165, 0.655, 0.3275, 0.8175, 0.41, 0.9, 0.245],
  "SoftwareVersions": "syngo_MR_E11",
  "SpacingBetweenSlices": 2.5,
  "StationName": "AWP66112",
  "TaskName": "movie",
  "TotalReadoutTime": 0.0522511,
  "TxRefAmp": 260.846,
  "dcmmeta_affine": [
    [-2.4964771270751953, 0.09634131193161011, -0.09121435880661011, 117.41011047363281],
    [0.09586801379919052, 2.4981179237365723, 0.014687109738588333, -110.69595336914062],
    [-0.09171167761087418, -0.01116859819740057, 2.4982922077178955, -69.83658599853516],
    [0.0, 0.0, 0.0, 1.0]
],
  "dcmmeta_reorient_transform": [
    [0.0, -1.0, 0.0, 95.0],
    [1.0, 0.0, 0.0, 0.0],
    [0.0, 0.0, 1.0, 0.0],
    [0.0, 0.0, 0.0, 1.0]
],
  "dcmmeta_shape": [96, 96, 48, 535],
  "dcmmeta_slice_dim": 2,
  "dcmmeta_version": 0.6,
  "global": {
    "const": {
      "AccessionNumber": "A001665",
      "AcquisitionMatrix": [96, 0, 0, 96],
      "AngioFlag": "N",
      "BitsAllocated": 16,
      "BitsStored": 12,
      "BodyPartExamined": "BRAIN",
      "Columns": 672,
      "EchoNumbers": 1,
      "EchoTime": 33.0,
      "EchoTrainLength": 96,
      "FlipAngle": 59.0,
      "HighBit": 11,
      "ImageOrientationPatient": [0.99859087054588, -0.0383472041201, -0.0366846725295, 0.03853652607023, 0.99924720572214, 0.00446743941617],
      "ImagePositionPatient": [-873.29426384799, -818.47325922689, -47.701196059783],
      "ImageType": [
        "ORIGINAL",
        "PRIMARY",
        "FMRI",
        "NONE",
        "ND",
        "NORM",
        "MOSAIC"
],
      "ImagedNucleus": "1H",
      "ImagingFrequency": 123.25228,
      "InPlanePhaseEncodingDirection": "COL",
      "MRAcquisitionType": "2D",
      "MagneticFieldStrength": 3.0,
      "Manufacturer": "SIEMENS",
      "ManufacturerModelName": "Prisma",
      "Modality": "MR",
      "NumberOfAverages": 1.0,
      "NumberOfPhaseEncodingSteps": 96,
      "PercentPhaseFieldOfView": 100.0,
      "PercentSampling": 100.0,
      "PerformedProcedureStepStartTime": "205658.861000",
      "PhotometricInterpretation": "MONOCHROME2",
      "PixelBandwidth": 2365.0,
      "PixelRepresentation": 0,
      "PixelSpacing": [2.5, 2.5],
      "ProtocolName": "func_run-03_task-movie",
      "RepetitionTime": 1000.0,
      "Rows": 672,
      "SAR": 0.05330135196761,
      "SamplesPerPixel": 1,
      "ScanOptions": "FS",
      "ScanningSequence": "EP",
      "SequenceName": "*epfid2d1_96",
      "SequenceVariant": "SK",
      "SeriesDescription": "func_run-03_task-movie",
      "SeriesNumber": 22,
      "SeriesTime": "213436.268000",
      "SliceLocation": -74.722998672162,
      "SliceThickness": 2.5,
      "SmallestImagePixelValue": 0,
      "SoftwareVersions": "syngo MR E11",
      "SpacingBetweenSlices": 2.4999999702463,
      "SpecificCharacterSet": "ISO_IR 100",
      "StudyID": "1",
      "StudyTime": "205658.792000",
      "TransmitCoilName": "Body",
      "VariableFlipAngleFlag": "N",
      "WindowCenterWidthExplanation": "Algo1",
      "dBdt": 0.0},
    "slices": {}
  },
  "time": {
    "samples": {
      "AcquisitionNumber": [1, 2, 3, 4, 5, 6, 7, 8, 9, 10, 11, 12, 13, 14, 15, 16, 17, 18, 19, 20, 21, 22, 23, 24, 25, 26, 27, 28, 29, 30, 31, 32, 33, 34, 35, 36, 37, 38, 39, 40, 41, 42, 43, 44, 45, 46, 47, 48, 49, 50, 51, 52, 53, 54, 55, 56, 57, 58, 59, 60, 61, 62, 63, 64, 65, 66, 67, 68, 69, 70, 71, 72, 73, 74, 75, 76, 77, 78, 79, 80, 81, 82, 83, 84, 85, 86, 87, 88, 89, 90, 91, 92, 93, 94, 95, 96, 97, 98, 99, 100, 101, 102, 103, 104, 105, 106, 107, 108, 109, 110, 111, 112, 113, 114, 115, 116, 117, 118, 119, 120, 121, 122, 123, 124, 125, 126, 127, 128, 129, 130, 131, 132, 133, 134, 135, 136, 137, 138, 139, 140, 141, 142, 143, 144, 145, 146, 147, 148, 149, 150, 151, 152, 153, 154, 155, 156, 157, 158, 159, 160, 161, 162, 163, 164, 165, 166, 167, 168, 169, 170, 171, 172, 173, 174, 175, 176, 177, 178, 179, 180, 181, 182, 183, 184, 185, 186, 187, 188, 189, 190, 191, 192, 193, 194, 195, 196, 197, 198, 199, 200, 201, 202, 203, 204, 205, 206, 207, 208, 209, 210, 211, 212, 213, 214, 215, 216, 217, 218, 219, 220, 221, 222, 223, 224, 225, 226, 227, 228, 229, 230, 231, 232, 233, 234, 235, 236, 237, 238, 239, 240, 241, 242, 243, 244, 245, 246, 247, 248, 249, 250, 251, 252, 253, 254, 255, 256, 257, 258, 259, 260, 261, 262, 263, 264, 265, 266, 267, 268, 269, 270, 271, 272, 273, 274, 275, 276, 277, 278, 279, 280, 281, 282, 283, 284, 285, 286, 287, 288, 289, 290, 291, 292, 293, 294, 295, 296, 297, 298, 299, 300, 301, 302, 303, 304, 305, 306, 307, 308, 309, 310, 311, 312, 313, 314, 315, 316, 317, 318, 319, 320, 321, 322, 323, 324, 325, 326, 327, 328, 329, 330, 331, 332, 333, 334, 335, 336, 337, 338, 339, 340, 341, 342, 343, 344, 345, 346, 347, 348, 349, 350, 351, 352, 353, 354, 355, 356, 357, 358, 359, 360, 361, 362, 363, 364, 365, 366, 367, 368, 369, 370, 371, 372, 373, 374, 375, 376, 377, 378, 379, 380, 381, 382, 383, 384, 385, 386, 387, 388, 389, 390, 391, 392, 393, 394, 395, 396, 397, 398, 399, 400, 401, 402, 403, 404, 405, 406, 407, 408, 409, 410, 411, 412, 413, 414, 415, 416, 417, 418, 419, 420, 421, 422, 423, 424, 425, 426, 427, 428, 429, 430, 431, 432, 433, 434, 435, 436, 437, 438, 439, 440, 441, 442, 443, 444, 445, 446, 447, 448, 449, 450, 451, 452, 453, 454, 455, 456, 457, 458, 459, 460, 461, 462, 463, 464, 465, 466, 467, 468, 469, 470, 471, 472, 473, 474, 475, 476, 477, 478, 479, 480, 481, 482, 483, 484, 485, 486, 487, 488, 489, 490, 491, 492, 493, 494, 495, 496, 497, 498, 499, 500, 501, 502, 503, 504, 505, 506, 507, 508, 509, 510, 511, 512, 513, 514, 515, 516, 517, 518, 519, 520, 521, 522, 523, 524, 525, 526, 527, 528, 529, 530, 531, 532, 533, 534, 535],
      "AcquisitionTime": ["213434.470000", "213435.470000", "213436.470000", "213437.470000", "213438.470000", "213439.470000", "213440.470000", "213441.470000", "213442.470000", "213443.470000", "213444.470000", "213445.470000", "213446.470000", "213447.470000", "213448.470000", "213449.470000", "213450.470000", "213451.470000", "213452.470000", "213453.470000", "213454.470000", "213455.470000", "213456.470000", "213457.470000", "213458.470000", "213459.470000", "213500.470000", "213501.470000", "213502.470000", "213503.470000", "213504.470000", "213505.470000", "213506.470000", "213507.470000", "213508.470000", "213509.470000", "213510.470000", "213511.470000", "213512.470000", "213513.470000", "213514.470000", "213515.470000", "213516.470000", "213517.470000", "213518.470000", "213519.470000", "213520.470000", "213521.470000", "213522.470000", "213523.470000", "213524.470000", "213525.470000", "213526.470000", "213527.470000", "213528.470000", "213529.470000", "213530.470000", "213531.470000", "213532.470000", "213533.470000", "213534.470000", "213535.470000", "213536.470000", "213537.470000", "213538.470000", "213539.470000", "213540.470000", "213541.470000", "213542.470000", "213543.470000", "213544.470000", "213545.470000", "213546.470000", "213547.470000", "213548.470000", "213549.470000", "213550.470000", "213551.470000", "213552.470000", "213553.470000", "213554.470000", "213555.470000", "213556.470000", "213557.470000", "213558.470000", "213559.470000", "213600.470000", "213601.470000", "213602.470000", "213603.470000", "213604.470000", "213605.470000", "213606.470000", "213607.470000", "213608.470000", "213609.470000", "213610.470000", "213611.470000", "213612.470000", "213613.470000", "213614.470000", "213615.470000", "213616.470000", "213617.470000", "213618.470000", "213619.470000", "213620.470000", "213621.470000", "213622.470000", "213623.470000", "213624.470000", "213625.470000", "213626.470000", "213627.470000", "213628.470000", "213629.470000", "213630.470000", "213631.470000", "213632.470000", "213633.470000", "213634.470000", "213635.470000", "213636.470000", "213637.470000", "213638.470000", "213639.470000", "213640.470000", "213641.470000", "213642.470000", "213643.470000", "213644.470000", "213645.470000", "213646.470000", "213647.470000", "213648.470000", "213649.470000", "213650.470000", "213651.470000", "213652.470000", "213653.470000", "213654.470000", "213655.470000", "213656.470000", "213657.470000", "213658.470000", "213659.470000", "213700.470000", "213701.470000", "213702.470000", "213703.470000", "213704.470000", "213705.470000", "213706.470000", "213707.470000", "213708.470000", "213709.470000", "213710.470000", "213711.470000", "213712.470000", "213713.470000", "213714.470000", "213715.470000", "213716.470000", "213717.470000", "213718.470000", "213719.470000", "213720.470000", "213721.470000", "213722.470000", "213723.470000", "213724.470000", "213725.470000", "213726.470000", "213727.470000", "213728.470000", "213729.470000", "213730.470000", "213731.470000", "213732.470000", "213733.470000", "213734.470000", "213735.470000", "213736.470000", "213737.470000", "213738.470000", "213739.470000", "213740.470000", "213741.470000", "213742.470000", "213743.470000", "213744.470000", "213745.470000", "213746.470000", "213747.470000", "213748.470000", "213749.470000", "213750.470000", "213751.470000", "213752.470000", "213753.470000", "213754.470000", "213755.470000", "213756.470000", "213757.470000", "213758.470000", "213759.470000", "213800.470000", "213801.470000", "213802.470000", "213803.470000", "213804.470000", "213805.470000", "213806.470000", "213807.470000", "213808.470000", "213809.470000", "213810.470000", "213811.470000", "213812.470000", "213813.470000", "213814.470000", "213815.470000", "213816.470000", "213817.470000", "213818.470000", "213819.470000", "213820.470000", "213821.470000", "213822.470000", "213823.470000", "213824.470000", "213825.470000", "213826.470000", "213827.470000", "213828.470000", "213829.470000", "213830.470000", "213831.470000", "213832.470000", "213833.470000", "213834.470000", "213835.470000", "213836.470000", "213837.470000", "213838.470000", "213839.470000", "213840.470000", "213841.470000", "213842.470000", "213843.470000", "213844.470000", "213845.470000", "213846.470000", "213847.470000", "213848.470000", "213849.470000", "213850.470000", "213851.470000", "213852.470000", "213853.470000", "213854.470000", "213855.470000", "213856.470000", "213857.470000", "213858.470000", "213859.470000", "213900.470000", "213901.470000", "213902.470000", "213903.470000", "213904.470000", "213905.470000", "213906.470000", "213907.470000", "213908.470000", "213909.470000", "213910.470000", "213911.470000", "213912.470000", "213913.470000", "213914.470000", "213915.470000", "213916.470000", "213917.470000", "213918.470000", "213919.470000", "213920.470000", "213921.470000", "213922.470000", "213923.470000", "213924.470000", "213925.470000", "213926.470000", "213927.470000", "213928.470000", "213929.470000", "213930.470000", "213931.470000", "213932.470000", "213933.470000", "213934.470000", "213935.470000", "213936.470000", "213937.470000", "213938.470000", "213939.470000", "213940.470000", "213941.470000", "213942.470000", "213943.470000", "213944.470000", "213945.470000", "213946.470000", "213947.470000", "213948.470000", "213949.470000", "213950.470000", "213951.470000", "213952.470000", "213953.470000", "213954.470000", "213955.470000", "213956.470000", "213957.470000", "213958.470000", "213959.470000", "214000.470000", "214001.470000", "214002.470000", "214003.470000", "214004.470000", "214005.470000", "214006.470000", "214007.470000", "214008.470000", "214009.470000", "214010.470000", "214011.470000", "214012.470000", "214013.470000", "214014.470000", "214015.470000", "214016.470000", "214017.470000", "214018.470000", "214019.470000", "214020.470000", "214021.470000", "214022.470000", "214023.470000", "214024.470000", "214025.470000", "214026.470000", "214027.470000", "214028.470000", "214029.470000", "214030.470000", "214031.470000", "214032.470000", "214033.470000", "214034.470000", "214035.470000", "214036.470000", "214037.470000", "214038.470000", "214039.470000", "214040.470000", "214041.470000", "214042.470000", "214043.470000", "214044.470000", "214045.470000", "214046.470000", "214047.470000", "214048.470000", "214049.470000", "214050.470000", "214051.470000", "214052.470000", "214053.470000", "214054.470000", "214055.470000", "214056.470000", "214057.470000", "214058.470000", "214059.470000", "214100.470000", "214101.470000", "214102.470000", "214103.470000", "214104.470000", "214105.470000", "214106.470000", "214107.470000", "214108.470000", "214109.470000", "214110.470000", "214111.470000", "214112.470000", "214113.470000", "214114.470000", "214115.470000", "214116.470000", "214117.470000", "214118.470000", "214119.470000", "214120.470000", "214121.470000", "214122.470000", "214123.470000", "214124.470000", "214125.470000", "214126.470000", "214127.470000", "214128.470000", "214129.470000", "214130.470000", "214131.470000", "214132.470000", "214133.470000", "214134.470000", "214135.470000", "214136.470000", "214137.470000", "214138.470000", "214139.470000", "214140.470000", "214141.470000", "214142.470000", "214143.470000", "214144.470000", "214145.470000", "214146.470000", "214147.470000", "214148.470000", "214149.470000", "214150.470000", "214151.470000", "214152.470000", "214153.470000", "214154.470000", "214155.470000", "214156.470000", "214157.470000", "214158.470000", "214159.470000", "214200.470000", "214201.470000", "214202.470000", "214203.470000", "214204.470000", "214205.470000", "214206.470000", "214207.470000", "214208.470000", "214209.470000", "214210.470000", "214211.470000", "214212.470000", "214213.470000", "214214.470000", "214215.470000", "214216.470000", "214217.470000", "214218.470000", "214219.470000", "214220.470000", "214221.470000", "214222.470000", "214223.470000", "214224.470000", "214225.470000", "214226.470000", "214227.470000", "214228.470000", "214229.470000", "214230.470000", "214231.470000", "214232.470000", "214233.470000", "214234.470000", "214235.470000", "214236.470000", "214237.470000", "214238.470000", "214239.470000", "214240.470000", "214241.470000", "214242.470000", "214243.470000", "214244.470000", "214245.470000", "214246.470000", "214247.470000", "214248.470000", "214249.470000", "214250.470000", "214251.470000", "214252.470000", "214253.470000", "214254.470000", "214255.470000", "214256.470000", "214257.470000", "214258.470000", "214259.470000", "214300.470000", "214301.470000", "214302.470000", "214303.470000", "214304.470000", "214305.470000", "214306.470000", "214307.470000", "214308.470000", "214309.470000", "214310.470000", "214311.470000", "214312.470000", "214313.470000", "214314.470000", "214315.470000", "214316.470000", "214317.470000", "214318.470000", "214319.470000", "214320.470000", "214321.470000", "214322.470000", "214323.470000", "214324.470000", "214325.470000", "214326.470000", "214327.470000", "214328.470000"],
      "ContentTime": ["213436.272000", "213437.056000", "213438.120000", "213439.103000", "213440.130000", "213441.073000", "213442.064000", "213443.102000", "213444.048000", "213445.068000", "213446.104000", "213447.075000", "213448.071000", "213449.078000", "213450.053000", "213451.060000", "213452.061000", "213453.068000", "213454.060000", "213455.097000", "213456.082000", "213457.052000", "213458.078000", "213459.080000", "213500.129000", "213501.104000", "213502.095000", "213503.126000", "213504.063000", "213505.047000", "213506.089000", "213507.093000", "213508.149000", "213509.069000", "213510.108000", "213511.055000", "213512.073000", "213513.064000", "213514.074000", "213515.068000", "213516.090000", "213517.059000", "213518.087000", "213519.076000", "213520.054000", "213521.066000", "213522.066000", "213523.095000", "213524.109000", "213525.142000", "213526.062000", "213527.058000", "213528.116000", "213529.096000", "213530.082000", "213531.073000", "213532.057000", "213533.097000", "213534.066000", "213535.076000", "213536.138000", "213537.074000", "213538.075000", "213539.057000", "213540.069000", "213541.092000", "213542.104000", "213543.063000", "213544.115000", "213545.072000", "213546.074000", "213547.082000", "213548.085000", "213549.061000", "213550.039000", "213551.053000", "213552.070000", "213553.119000", "213554.106000", "213555.074000", "213556.054000", "213557.045000", "213558.061000", "213559.063000", "213600.059000", "213601.076000", "213602.078000", "213603.069000", "213604.108000", "213605.061000", "213606.054000", "213607.057000", "213608.056000", "213609.114000", "213610.075000", "213611.078000", "213612.063000", "213613.093000", "213614.060000", "213615.061000", "213616.077000", "213617.094000", "213618.062000", "213619.092000", "213620.090000", "213621.071000", "213622.085000", "213623.093000", "213624.074000", "213625.093000", "213626.094000", "213627.072000", "213628.075000", "213629.123000", "213630.081000", "213631.059000", "213632.096000", "213633.069000", "213634.081000", "213635.091000", "213636.075000", "213637.088000", "213638.084000", "213639.086000", "213640.100000", "213641.108000", "213642.068000", "213643.075000", "213644.082000", "213645.078000", "213646.131000", "213647.072000", "213648.066000", "213649.079000", "213650.090000", "213651.064000", "213652.078000", "213653.090000", "213654.091000", "213655.060000", "213656.071000", "213657.078000", "213658.108000", "213659.064000", "213700.092000", "213701.080000", "213702.089000", "213703.063000", "213704.050000", "213705.079000", "213706.157000", "213707.090000", "213708.060000", "213709.053000", "213710.068000", "213711.081000", "213712.071000", "213713.067000", "213714.058000", "213715.056000", "213716.076000", "213717.067000", "213718.079000", "213719.142000", "213720.067000", "213721.086000", "213722.081000", "213723.080000", "213724.079000", "213725.067000", "213726.083000", "213727.077000", "213728.069000", "213729.083000", "213730.059000", "213731.072000", "213732.051000", "213733.104000", "213734.070000", "213735.068000", "213736.082000", "213737.077000", "213738.094000", "213739.053000", "213740.096000", "213741.079000", "213742.057000", "213743.066000", "213744.094000", "213745.068000", "213746.088000", "213747.086000", "213748.085000", "213749.086000", "213750.073000", "213751.054000", "213752.053000", "213753.083000", "213754.056000", "213755.068000", "213756.088000", "213757.097000", "213758.091000", "213759.046000", "213800.068000", "213801.067000", "213802.067000", "213803.058000", "213804.075000", "213805.053000", "213806.103000", "213807.074000", "213808.075000", "213809.075000", "213810.048000", "213811.069000", "213812.081000", "213813.057000", "213814.082000", "213815.054000", "213816.088000", "213817.078000", "213818.121000", "213819.055000", "213820.062000", "213821.077000", "213822.096000", "213823.059000", "213824.084000", "213825.085000", "213826.066000", "213827.068000", "213828.073000", "213829.089000", "213830.061000", "213831.071000", "213832.073000", "213833.073000", "213834.067000", "213835.110000", "213836.060000", "213837.103000", "213838.075000", "213839.074000", "213840.081000", "213841.051000", "213842.067000", "213843.075000", "213844.091000", "213845.093000", "213846.097000", "213847.051000", "213848.063000", "213849.087000", "213850.059000", "213851.052000", "213852.113000", "213853.051000", "213854.028000", "213855.092000", "213856.056000", "213857.098000", "213858.079000", "213859.138000", "213900.084000", "213901.072000", "213902.063000", "213903.068000", "213904.091000", "213905.068000", "213906.041000", "213907.077000", "213908.060000", "213909.094000", "213910.070000", "213911.099000", "213912.075000", "213913.082000", "213914.076000", "213915.081000", "213916.074000", "213917.071000", "213918.084000", "213919.073000", "213920.060000", "213921.068000", "213922.078000", "213923.077000", "213924.086000", "213925.058000", "213926.076000", "213927.115000", "213928.063000", "213929.082000", "213930.124000", "213931.071000", "213932.092000", "213933.095000", "213934.121000", "213935.071000", "213936.067000", "213937.053000", "213938.112000", "213939.090000", "213940.067000", "213941.078000", "213942.123000", "213943.052000", "213944.082000", "213945.066000", "213946.090000", "213947.065000", "213948.066000", "213949.085000", "213950.065000", "213951.079000", "213952.086000", "213953.108000", "213954.075000", "213955.106000", "213956.099000", "213957.087000", "213958.069000", "213959.126000", "214000.046000", "214001.076000", "214002.104000", "214003.060000", "214004.070000", "214005.075000", "214006.070000", "214007.052000", "214008.059000", "214009.059000", "214010.075000", "214011.119000", "214012.109000", "214013.109000", "214014.088000", "214015.114000", "214016.087000", "214017.092000", "214018.047000", "214019.129000", "214020.032000", "214021.046000", "214022.066000", "214023.080000", "214024.122000", "214025.059000", "214026.068000", "214027.081000", "214028.086000", "214029.047000", "214030.034000", "214031.071000", "214032.036000", "214033.116000", "214034.062000", "214035.051000", "214036.095000", "214037.094000", "214038.059000", "214039.108000", "214040.053000", "214041.138000", "214042.079000", "214043.067000", "214044.077000", "214045.058000", "214046.039000", "214047.108000", "214048.063000", "214049.076000", "214050.093000", "214051.033000", "214052.064000", "214053.070000", "214054.148000", "214055.068000", "214056.049000", "214057.067000", "214058.084000", "214059.069000", "214100.082000", "214101.054000", "214102.091000", "214103.076000", "214104.069000", "214105.074000", "214106.078000", "214107.092000", "214108.082000", "214109.124000", "214110.071000", "214111.098000", "214112.054000", "214113.110000", "214114.058000", "214115.064000", "214116.063000", "214117.062000", "214118.094000", "214119.065000", "214120.101000", "214121.052000", "214122.072000", "214123.078000", "214124.070000", "214125.075000", "214126.068000", "214127.067000", "214128.067000", "214129.075000", "214130.068000", "214131.065000", "214132.060000", "214133.066000", "214134.067000", "214135.086000", "214136.051000", "214137.068000", "214138.123000", "214139.082000", "214140.071000", "214141.110000", "214142.083000", "214143.053000", "214144.099000", "214145.079000", "214146.060000", "214147.090000", "214148.115000", "214149.116000", "214150.091000", "214151.068000", "214152.067000", "214153.082000", "214154.118000", "214155.093000", "214156.133000", "214157.055000", "214158.081000", "214159.088000", "214200.065000", "214201.088000", "214202.066000", "214203.106000", "214204.062000", "214205.089000", "214206.073000", "214207.110000", "214208.086000", "214209.061000", "214210.053000", "214211.070000", "214212.093000", "214213.097000", "214214.059000", "214215.093000", "214216.063000", "214217.072000", "214218.061000", "214219.090000", "214220.065000", "214221.060000", "214222.059000", "214223.072000", "214224.070000", "214225.083000", "214226.082000", "214227.052000", "214228.084000", "214229.065000", "214230.082000", "214231.086000", "214232.066000", "214233.069000", "214234.062000", "214235.058000", "214236.050000", "214237.062000", "214238.080000", "214239.064000", "214240.080000", "214241.066000", "214242.053000", "214243.062000", "214244.150000", "214245.051000", "214246.064000", "214247.071000", "214248.066000", "214249.088000", "214250.059000", "214251.114000", "214252.078000", "214253.111000", "214254.154000", "214255.112000", "214256.140000", "214257.114000", "214258.124000", "214259.113000", "214300.140000", "214301.120000", "214302.115000", "214303.102000", "214304.101000", "214305.101000", "214306.165000", "214307.140000", "214308.131000", "214309.114000", "214310.122000", "214311.102000", "214312.100000", "214313.105000", "214314.114000", "214315.111000", "214316.097000", "214317.106000", "214318.099000", "214319.112000", "214320.132000", "214321.134000", "214322.126000", "214323.186000", "214324.117000", "214325.112000", "214326.128000", "214327.106000", "214328.090000", "214329.126000", "214330.106000"],
