{
  "AcquisitionMatrixPE": 96,
  "AcquisitionNumber": 1,
  "AcquisitionTime": "21:25:53.775000",
  "BandwidthPerPixelPhaseEncode": 18.939,
  "BaseResolution": 96,
  "BodyPartExamined": "BRAIN",
  "ConsistencyInfo": "N4_VE11C_LATEST_20160120",
  "ConversionSoftware": "dcm2niix",
  "ConversionSoftwareVersion": "v1.0.20190902",
  "DerivedVendorReportedEchoSpacing": 0.000550011,
  "DeviceSerialNumber": "66112",
  "DwellTime": 2.2e-06,
  "EchoTime": 0.033,
  "EchoTrainLength": 96,
  "EffectiveEchoSpacing": 0.000550011,
  "FlipAngle": 59,
  "ImageOrientationPatientDICOM": [0.998591, -0.0383472, -0.0366847, 0.0385365, 0.999247, 0.00446744],
  "ImageType": [
    "ORIGINAL",
    "PRIMARY",
    "FMRI",
    "NONE",
    "ND",
    "NORM",
    "MOSAIC"
],
  "ImagingFrequency": 123.252,
  "InPlanePhaseEncodingDirectionDICOM": "COL",
  "InstitutionAddress": "Maynard_3_Hanover_NH_US_03755",
  "InstitutionName": "Dartmouth_College_-_PBS",
  "InstitutionalDepartmentName": "Department",
  "MRAcquisitionType": "2D",
  "MagneticFieldStrength": 3,
  "Manufacturer": "Siemens",
  "ManufacturersModelName": "Prisma",
  "Modality": "MR",
  "MultibandAccelerationFactor": 4,
  "PartialFourier": 1,
  "PatientPosition": "HFS",
  "PercentPhaseFOV": 100,
  "PhaseEncodingDirection": "j-",
  "PhaseEncodingSteps": 96,
  "PhaseResolution": 1,
  "PixelBandwidth": 2365,
  "ProcedureStepDescription": "Gobbini_Matteo_1037_budapest",
  "ProtocolName": "func_run-02_task-movie",
  "PulseSequenceDetails": "%SiemensSeq%_ep2d_bold",
  "ReceiveCoilActiveElements": "HEA;HEP",
  "ReceiveCoilName": "Head_32",
  "ReconMatrixPE": 96,
  "RefLinesPE": 12,
  "RepetitionTime": 1,
  "SAR": 0.0532775,
  "ScanOptions": "FS",
  "ScanningSequence": "EP",
  "SequenceName": "_epfid2d1_96",
  "SequenceVariant": "SK",
  "SeriesDescription": "func_run-02_task-movie",
  "SeriesNumber": 15,
  "ShimSetting": [4147, -7713, -7305, 504, -46, -292, 20, 78],
  "SliceThickness": 2.5,
  "SliceTiming": [0.735, 0, 0.49, 0.0825, 0.5725, 0.165, 0.655, 0.3275, 0.8175, 0.41, 0.9, 0.245, 0.735, 0, 0.49, 0.0825, 0.5725, 0.165, 0.655, 0.3275, 0.8175, 0.41, 0.9, 0.245, 0.735, 0, 0.49, 0.0825, 0.5725, 0.165, 0.655, 0.3275, 0.8175, 0.41, 0.9, 0.245, 0.735, 0, 0.49, 0.0825, 0.5725, 0.165, 0.655, 0.3275, 0.8175, 0.41, 0.9, 0.245],
  "SoftwareVersions": "syngo_MR_E11",
  "SpacingBetweenSlices": 2.5,
  "StationName": "AWP66112",
  "TaskName": "movie",
  "TotalReadoutTime": 0.0522511,
  "TxRefAmp": 260.846,
  "dcmmeta_affine": [
    [-2.4964771270751953, 0.09634131193161011, -0.09121435880661011, 117.41011047363281],
    [0.09586801379919052, 2.4981179237365723, 0.014687109738588333, -110.69595336914062],
    [-0.09171167761087418, -0.01116859819740057, 2.4982922077178955, -69.83658599853516],
    [0.0, 0.0, 0.0, 1.0]
],
  "dcmmeta_reorient_transform": [
    [0.0, -1.0, 0.0, 95.0],
    [1.0, 0.0, 0.0, 0.0],
    [0.0, 0.0, 1.0, 0.0],
    [0.0, 0.0, 0.0, 1.0]
],
  "dcmmeta_shape": [96, 96, 48, 498],
  "dcmmeta_slice_dim": 2,
  "dcmmeta_version": 0.6,
  "global": {
    "const": {
      "AccessionNumber": "A001665",
      "AcquisitionMatrix": [96, 0, 0, 96],
      "AngioFlag": "N",
      "BitsAllocated": 16,
      "BitsStored": 12,
      "BodyPartExamined": "BRAIN",
      "Columns": 672,
      "EchoNumbers": 1,
      "EchoTime": 33.0,
      "EchoTrainLength": 96,
      "FlipAngle": 59.0,
      "HighBit": 11,
      "ImageOrientationPatient": [0.99859087054588, -0.0383472041201, -0.0366846725295, 0.03853652607023, 0.99924720572214, 0.00446743941617],
      "ImagePositionPatient": [-873.29426384799, -818.47325922689, -47.701196059783],
      "ImageType": [
        "ORIGINAL",
        "PRIMARY",
        "FMRI",
        "NONE",
        "ND",
        "NORM",
        "MOSAIC"
],
      "ImagedNucleus": "1H",
      "ImagingFrequency": 123.252275,
      "InPlanePhaseEncodingDirection": "COL",
      "MRAcquisitionType": "2D",
      "MagneticFieldStrength": 3.0,
      "Manufacturer": "SIEMENS",
      "ManufacturerModelName": "Prisma",
      "Modality": "MR",
      "NumberOfAverages": 1.0,
      "NumberOfPhaseEncodingSteps": 96,
      "PercentPhaseFieldOfView": 100.0,
      "PercentSampling": 100.0,
      "PerformedProcedureStepStartTime": "205658.861000",
      "PhotometricInterpretation": "MONOCHROME2",
      "PixelBandwidth": 2365.0,
      "PixelRepresentation": 0,
      "PixelSpacing": [2.5, 2.5],
      "ProtocolName": "func_run-02_task-movie",
      "RepetitionTime": 1000.0,
      "Rows": 672,
      "SAR": 0.05327753297547,
      "SamplesPerPixel": 1,
      "ScanOptions": "FS",
      "ScanningSequence": "EP",
      "SequenceName": "*epfid2d1_96",
      "SequenceVariant": "SK",
      "SeriesDescription": "func_run-02_task-movie",
      "SeriesNumber": 15,
      "SeriesTime": "212554.911000",
      "SliceLocation": -74.722998672162,
      "SliceThickness": 2.5,
      "SmallestImagePixelValue": 0,
      "SoftwareVersions": "syngo MR E11",
      "SpacingBetweenSlices": 2.4999999702463,
      "SpecificCharacterSet": "ISO_IR 100",
      "StudyID": "1",
      "StudyTime": "205658.792000",
      "TransmitCoilName": "Body",
      "VariableFlipAngleFlag": "N",
      "WindowCenterWidthExplanation": "Algo1",
      "dBdt": 0.0},
    "slices": {}
  },
  "time": {
    "samples": {
      "AcquisitionNumber": [1, 2, 3, 4, 5, 6, 7, 8, 9, 10, 11, 12, 13, 14, 15, 16, 17, 18, 19, 20, 21, 22, 23, 24, 25, 26, 27, 28, 29, 30, 31, 32, 33, 34, 35, 36, 37, 38, 39, 40, 41, 42, 43, 44, 45, 46, 47, 48, 49, 50, 51, 52, 53, 54, 55, 56, 57, 58, 59, 60, 61, 62, 63, 64, 65, 66, 67, 68, 69, 70, 71, 72, 73, 74, 75, 76, 77, 78, 79, 80, 81, 82, 83, 84, 85, 86, 87, 88, 89, 90, 91, 92, 93, 94, 95, 96, 97, 98, 99, 100, 101, 102, 103, 104, 105, 106, 107, 108, 109, 110, 111, 112, 113, 114, 115, 116, 117, 118, 119, 120, 121, 122, 123, 124, 125, 126, 127, 128, 129, 130, 131, 132, 133, 134, 135, 136, 137, 138, 139, 140, 141, 142, 143, 144, 145, 146, 147, 148, 149, 150, 151, 152, 153, 154, 155, 156, 157, 158, 159, 160, 161, 162, 163, 164, 165, 166, 167, 168, 169, 170, 171, 172, 173, 174, 175, 176, 177, 178, 179, 180, 181, 182, 183, 184, 185, 186, 187, 188, 189, 190, 191, 192, 193, 194, 195, 196, 197, 198, 199, 200, 201, 202, 203, 204, 205, 206, 207, 208, 209, 210, 211, 212, 213, 214, 215, 216, 217, 218, 219, 220, 221, 222, 223, 224, 225, 226, 227, 228, 229, 230, 231, 232, 233, 234, 235, 236, 237, 238, 239, 240, 241, 242, 243, 244, 245, 246, 247, 248, 249, 250, 251, 252, 253, 254, 255, 256, 257, 258, 259, 260, 261, 262, 263, 264, 265, 266, 267, 268, 269, 270, 271, 272, 273, 274, 275, 276, 277, 278, 279, 280, 281, 282, 283, 284, 285, 286, 287, 288, 289, 290, 291, 292, 293, 294, 295, 296, 297, 298, 299, 300, 301, 302, 303, 304, 305, 306, 307, 308, 309, 310, 311, 312, 313, 314, 315, 316, 317, 318, 319, 320, 321, 322, 323, 324, 325, 326, 327, 328, 329, 330, 331, 332, 333, 334, 335, 336, 337, 338, 339, 340, 341, 342, 343, 344, 345, 346, 347, 348, 349, 350, 351, 352, 353, 354, 355, 356, 357, 358, 359, 360, 361, 362, 363, 364, 365, 366, 367, 368, 369, 370, 371, 372, 373, 374, 375, 376, 377, 378, 379, 380, 381, 382, 383, 384, 385, 386, 387, 388, 389, 390, 391, 392, 393, 394, 395, 396, 397, 398, 399, 400, 401, 402, 403, 404, 405, 406, 407, 408, 409, 410, 411, 412, 413, 414, 415, 416, 417, 418, 419, 420, 421, 422, 423, 424, 425, 426, 427, 428, 429, 430, 431, 432, 433, 434, 435, 436, 437, 438, 439, 440, 441, 442, 443, 444, 445, 446, 447, 448, 449, 450, 451, 452, 453, 454, 455, 456, 457, 458, 459, 460, 461, 462, 463, 464, 465, 466, 467, 468, 469, 470, 471, 472, 473, 474, 475, 476, 477, 478, 479, 480, 481, 482, 483, 484, 485, 486, 487, 488, 489, 490, 491, 492, 493, 494, 495, 496, 497, 498],
      "AcquisitionTime": ["212553.775000", "212554.775000", "212555.775000", "212556.775000", "212557.775000", "212558.775000", "212559.775000", "212600.775000", "212601.775000", "212602.775000", "212603.775000", "212604.775000", "212605.775000", "212606.775000", "212607.775000", "212608.775000", "212609.775000", "212610.775000", "212611.775000", "212612.775000", "212613.775000", "212614.775000", "212615.775000", "212616.775000", "212617.775000", "212618.775000", "212619.775000", "212620.775000", "212621.775000", "212622.775000", "212623.775000", "212624.775000", "212625.775000", "212626.775000", "212627.775000", "212628.775000", "212629.775000", "212630.775000", "212631.775000", "212632.775000", "212633.775000", "212634.775000", "212635.775000", "212636.775000", "212637.775000", "212638.775000", "212639.775000", "212640.775000", "212641.775000", "212642.775000", "212643.775000", "212644.775000", "212645.775000", "212646.775000", "212647.775000", "212648.775000", "212649.775000", "212650.775000", "212651.775000", "212652.775000", "212653.775000", "212654.775000", "212655.775000", "212656.775000", "212657.775000", "212658.775000", "212659.775000", "212700.775000", "212701.775000", "212702.775000", "212703.775000", "212704.775000", "212705.775000", "212706.775000", "212707.775000", "212708.775000", "212709.775000", "212710.775000", "212711.775000", "212712.775000", "212713.775000", "212714.775000", "212715.775000", "212716.775000", "212717.775000", "212718.775000", "212719.775000", "212720.775000", "212721.775000", "212722.775000", "212723.775000", "212724.775000", "212725.775000", "212726.775000", "212727.775000", "212728.775000", "212729.775000", "212730.775000", "212731.775000", "212732.775000", "212733.775000", "212734.775000", "212735.775000", "212736.775000", "212737.775000", "212738.775000", "212739.775000", "212740.775000", "212741.775000", "212742.775000", "212743.775000", "212744.775000", "212745.775000", "212746.775000", "212747.775000", "212748.775000", "212749.775000", "212750.775000", "212751.775000", "212752.775000", "212753.775000", "212754.775000", "212755.775000", "212756.775000", "212757.775000", "212758.775000", "212759.775000", "212800.775000", "212801.775000", "212802.775000", "212803.775000", "212804.775000", "212805.775000", "212806.775000", "212807.775000", "212808.775000", "212809.775000", "212810.775000", "212811.775000", "212812.775000", "212813.775000", "212814.775000", "212815.775000", "212816.775000", "212817.775000", "212818.775000", "212819.775000", "212820.775000", "212821.775000", "212822.775000", "212823.775000", "212824.775000", "212825.775000", "212826.775000", "212827.775000", "212828.775000", "212829.775000", "212830.775000", "212831.775000", "212832.775000", "212833.775000", "212834.775000", "212835.775000", "212836.775000", "212837.775000", "212838.775000", "212839.775000", "212840.775000", "212841.775000", "212842.775000", "212843.775000", "212844.775000", "212845.775000", "212846.775000", "212847.775000", "212848.775000", "212849.775000", "212850.775000", "212851.775000", "212852.775000", "212853.775000", "212854.775000", "212855.775000", "212856.775000", "212857.775000", "212858.775000", "212859.775000", "212900.775000", "212901.775000", "212902.775000", "212903.775000", "212904.775000", "212905.775000", "212906.775000", "212907.775000", "212908.775000", "212909.775000", "212910.775000", "212911.775000", "212912.775000", "212913.775000", "212914.775000", "212915.775000", "212916.775000", "212917.775000", "212918.775000", "212919.775000", "212920.775000", "212921.775000", "212922.775000", "212923.775000", "212924.775000", "212925.775000", "212926.775000", "212927.775000", "212928.775000", "212929.775000", "212930.775000", "212931.775000", "212932.775000", "212933.775000", "212934.775000", "212935.775000", "212936.775000", "212937.775000", "212938.775000", "212939.775000", "212940.775000", "212941.775000", "212942.775000", "212943.775000", "212944.775000", "212945.775000", "212946.775000", "212947.775000", "212948.775000", "212949.775000", "212950.775000", "212951.775000", "212952.775000", "212953.775000", "212954.775000", "212955.775000", "212956.775000", "212957.775000", "212958.775000", "212959.775000", "213000.775000", "213001.775000", "213002.775000", "213003.775000", "213004.775000", "213005.775000", "213006.775000", "213007.775000", "213008.775000", "213009.775000", "213010.775000", "213011.775000", "213012.775000", "213013.775000", "213014.775000", "213015.775000", "213016.775000", "213017.775000", "213018.775000", "213019.775000", "213020.775000", "213021.775000", "213022.775000", "213023.775000", "213024.775000", "213025.775000", "213026.775000", "213027.775000", "213028.775000", "213029.775000", "213030.775000", "213031.775000", "213032.775000", "213033.775000", "213034.775000", "213035.775000", "213036.775000", "213037.775000", "213038.775000", "213039.775000", "213040.775000", "213041.775000", "213042.775000", "213043.775000", "213044.775000", "213045.775000", "213046.775000", "213047.775000", "213048.775000", "213049.775000", "213050.775000", "213051.775000", "213052.775000", "213053.775000", "213054.775000", "213055.775000", "213056.775000", "213057.775000", "213058.775000", "213059.775000", "213100.775000", "213101.775000", "213102.775000", "213103.775000", "213104.775000", "213105.775000", "213106.775000", "213107.775000", "213108.775000", "213109.775000", "213110.775000", "213111.775000", "213112.775000", "213113.775000", "213114.775000", "213115.775000", "213116.775000", "213117.775000", "213118.775000", "213119.775000", "213120.775000", "213121.775000", "213122.775000", "213123.775000", "213124.775000", "213125.775000", "213126.775000", "213127.775000", "213128.775000", "213129.775000", "213130.775000", "213131.775000", "213132.775000", "213133.775000", "213134.775000", "213135.775000", "213136.775000", "213137.775000", "213138.775000", "213139.775000", "213140.775000", "213141.775000", "213142.775000", "213143.775000", "213144.775000", "213145.775000", "213146.775000", "213147.775000", "213148.775000", "213149.775000", "213150.775000", "213151.775000", "213152.775000", "213153.775000", "213154.775000", "213155.775000", "213156.775000", "213157.775000", "213158.775000", "213159.775000", "213200.775000", "213201.775000", "213202.775000", "213203.775000", "213204.775000", "213205.775000", "213206.775000", "213207.775000", "213208.775000", "213209.775000", "213210.775000", "213211.775000", "213212.775000", "213213.775000", "213214.775000", "213215.775000", "213216.775000", "213217.775000", "213218.775000", "213219.775000", "213220.775000", "213221.775000", "213222.775000", "213223.775000", "213224.775000", "213225.775000", "213226.775000", "213227.775000", "213228.775000", "213229.775000", "213230.775000", "213231.775000", "213232.775000", "213233.775000", "213234.775000", "213235.775000", "213236.775000", "213237.775000", "213238.775000", "213239.775000", "213240.775000", "213241.775000", "213242.775000", "213243.775000", "213244.775000", "213245.775000", "213246.775000", "213247.775000", "213248.775000", "213249.775000", "213250.775000", "213251.775000", "213252.775000", "213253.775000", "213254.775000", "213255.775000", "213256.775000", "213257.775000", "213258.775000", "213259.775000", "213300.775000", "213301.775000", "213302.775000", "213303.775000", "213304.775000", "213305.775000", "213306.775000", "213307.775000", "213308.775000", "213309.775000", "213310.775000", "213311.775000", "213312.775000", "213313.775000", "213314.775000", "213315.775000", "213316.775000", "213317.775000", "213318.775000", "213319.775000", "213320.775000", "213321.775000", "213322.775000", "213323.775000", "213324.775000", "213325.775000", "213326.775000", "213327.775000", "213328.775000", "213329.775000", "213330.775000", "213331.775000", "213332.775000", "213333.775000", "213334.775000", "213335.775000", "213336.775000", "213337.775000", "213338.775000", "213339.775000", "213340.775000", "213341.775000", "213342.775000", "213343.775000", "213344.775000", "213345.775000", "213346.775000", "213347.775000", "213348.775000", "213349.775000", "213350.775000", "213351.775000", "213352.775000", "213353.775000", "213354.775000", "213355.775000", "213356.775000", "213357.775000", "213358.775000", "213359.775000", "213400.775000", "213401.775000", "213402.775000", "213403.775000", "213404.775000", "213405.775000", "213406.775000", "213407.775000", "213408.775000", "213409.775000", "213410.775000"],
      "ContentTime": ["212554.914000", "212555.735000", "212556.776000", "212557.729000", "212558.737000", "212559.725000", "212600.748000", "212601.752000", "212602.735000", "212603.756000", "212604.795000", "212605.696000", "212606.750000", "212607.728000", "212608.732000", "212609.743000", "212610.737000", "212611.751000", "212612.744000", "212613.776000", "212614.706000", "212615.735000", "212616.767000", "212617.736000", "212618.744000", "212619.750000", "212620.741000", "212621.735000", "212622.747000", "212623.735000", "212624.765000", "212625.783000", "212626.718000", "212627.722000", "212628.745000", "212629.742000", "212630.741000", "212631.739000", "212632.754000", "212633.729000", "212634.731000", "212635.734000", "212636.736000", "212637.745000", "212638.722000", "212639.721000", "212640.751000", "212641.740000", "212642.749000", "212643.763000", "212644.753000", "212645.751000", "212646.741000", "212647.748000", "212648.737000", "212649.767000", "212650.741000", "212651.715000", "212652.727000", "212653.730000", "212654.752000", "212655.771000", "212656.744000", "212657.748000", "212658.764000", "212659.806000", "212700.732000", "212701.748000", "212702.734000", "212703.741000", "212704.721000", "212705.725000", "212706.737000", "212707.744000", "212708.739000", "212709.772000", "212710.743000", "212711.785000", "212712.738000", "212713.735000", "212714.733000", "212715.781000", "212716.754000", "212717.751000", "212718.758000", "212719.763000", "212720.764000", "212721.740000", "212722.748000", "212723.741000", "212724.754000", "212725.750000", "212726.768000", "212727.734000", "212728.758000", "212729.790000", "212730.804000", "212731.710000", "212732.772000", "212733.744000", "212734.742000", "212735.733000", "212736.735000", "212737.749000", "212738.745000", "212739.776000", "212740.740000", "212741.780000", "212742.759000", "212743.749000", "212744.767000", "212745.730000", "212746.747000", "212747.737000", "212748.729000", "212749.738000", "212750.722000", "212751.750000", "212752.739000", "212753.728000", "212754.746000", "212755.753000", "212756.738000", "212757.772000", "212758.748000", "212759.771000", "212800.757000", "212801.748000", "212802.770000", "212803.733000", "212804.730000", "212805.818000", "212806.780000", "212807.742000", "212808.746000", "212809.745000", "212810.750000", "212811.801000", "212812.731000", "212813.736000", "212814.797000", "212815.752000", "212816.741000", "212817.757000", "212818.756000", "212819.758000", "212820.721000", "212821.756000", "212822.743000", "212823.744000", "212824.775000", "212825.760000", "212826.739000", "212827.744000", "212828.744000", "212829.748000", "212830.752000", "212831.744000", "212832.747000", "212833.730000", "212834.711000", "212835.743000", "212836.769000", "212837.776000", "212838.757000", "212839.796000", "212840.730000", "212841.732000", "212842.768000", "212843.764000", "212844.756000", "212845.758000", "212846.767000", "212847.741000", "212848.726000", "212849.732000", "212850.789000", "212851.755000", "212852.743000", "212853.741000", "212854.730000", "212855.738000", "212856.727000", "212857.746000", "212858.740000", "212859.729000", "212900.752000", "212901.731000", "212902.755000", "212903.752000", "212904.748000", "212905.739000", "212906.749000", "212907.761000", "212908.729000", "212909.742000", "212910.811000", "212911.753000", "212912.795000", "212913.735000", "212914.786000", "212915.760000", "212916.792000", "212917.745000", "212918.753000", "212919.744000", "212920.770000", "212921.820000", "212922.776000", "212923.721000", "212924.742000", "212925.721000", "212926.731000", "212927.711000", "212928.749000", "212929.771000", "212930.764000", "212931.723000", "212932.730000", "212933.745000", "212934.755000", "212935.756000", "212936.732000", "212937.743000", "212938.746000", "212939.715000", "212940.699000", "212941.756000", "212942.731000", "212943.786000", "212944.744000", "212945.737000", "212946.730000", "212947.728000", "212948.796000", "212949.731000", "212950.784000", "212951.756000", "212952.756000", "212953.719000", "212954.742000", "212955.786000", "212956.753000", "212957.737000", "212958.756000", "212959.752000", "213000.744000", "213001.738000", "213002.732000", "213003.773000", "213004.744000", "213005.742000", "213006.724000", "213007.735000", "213008.754000", "213009.760000", "213010.720000", "213011.768000", "213012.716000", "213013.752000", "213014.783000", "213015.763000", "213016.740000", "213017.731000", "213018.738000", "213019.731000", "213020.735000", "213021.767000", "213022.744000", "213023.754000", "213024.750000", "213025.733000", "213026.759000", "213027.758000", "213028.768000", "213029.724000", "213030.737000", "213031.782000", "213032.762000", "213033.731000", "213034.730000", "213035.779000", "213036.734000", "213037.742000", "213038.751000", "213039.730000", "213040.818000", "213041.742000", "213042.741000", "213043.734000", "213044.712000", "213045.746000", "213046.779000", "213047.734000", "213048.742000", "213049.770000", "213050.717000", "213051.801000", "213052.774000", "213053.752000", "213054.762000", "213055.735000", "213056.748000", "213057.814000", "213058.745000", "213059.725000", "213100.729000", "213101.747000", "213102.773000", "213103.781000", "213104.740000", "213105.746000", "213106.766000", "213107.785000", "213108.735000", "213109.751000", "213110.729000", "213111.734000", "213112.737000", "213113.746000", "213114.741000", "213115.750000", "213116.740000", "213117.735000", "213118.754000", "213119.752000", "213120.762000", "213121.741000", "213122.724000", "213123.737000", "213124.752000", "213125.737000", "213126.739000", "213127.738000", "213128.751000", "213129.780000", "213130.729000", "213131.757000", "213132.756000", "213133.735000", "213134.745000", "213135.735000", "213136.747000", "213137.733000", "213138.731000", "213139.761000", "213140.731000", "213141.742000", "213142.751000", "213143.747000", "213144.749000", "213145.753000", "213146.724000", "213147.756000", "213148.723000", "213149.743000", "213150.781000", "213151.741000", "213152.731000", "213153.744000", "213154.734000", "213155.746000", "213156.728000", "213157.728000", "213158.749000", "213159.743000", "213200.740000", "213201.766000", "213202.733000", "213203.725000", "213204.770000", "213205.762000", "213206.737000", "213207.762000", "213208.742000", "213209.762000", "213210.774000", "213211.733000", "213212.744000", "213213.784000", "213214.718000", "213215.763000", "213216.712000", "213217.829000", "213218.741000", "213219.714000", "213220.747000", "213221.735000", "213222.742000", "213223.752000", "213224.738000", "213225.745000", "213226.739000", "213227.802000", "213228.731000", "213229.756000", "213230.762000", "213231.749000", "213232.730000", "213233.734000", "213234.740000", "213235.767000", "213236.738000", "213237.760000", "213238.771000", "213239.738000", "213240.723000", "213241.746000", "213242.750000", "213243.792000", "213244.789000", "213245.743000", "213246.754000", "213247.724000", "213248.748000", "213249.776000", "213250.776000", "213251.778000", "213252.757000", "213253.743000", "213254.759000", "213255.732000", "213256.782000", "213257.754000", "213258.745000", "213259.737000", "213300.721000", "213301.754000", "213302.750000", "213303.747000", "213304.709000", "213305.750000", "213306.732000", "213307.740000", "213308.748000", "213309.721000", "213310.782000", "213311.731000", "213312.762000", "213313.787000", "213314.743000", "213315.766000", "213316.795000", "213317.756000", "213318.785000", "213319.751000", "213320.766000", "213321.735000", "213322.758000", "213323.762000", "213324.732000", "213325.777000", "213326.764000", "213327.739000", "213328.758000", "213329.770000", "213330.720000", "213331.759000", "213332.740000", "213333.729000", "213334.776000", "213335.744000", "213336.782000", "213337.738000", "213338.725000", "213339.726000", "213340.704000", "213341.747000", "213342.750000", "213343.745000", "213344.766000", "213345.774000", "213346.746000", "213347.788000", "213348.755000", "213349.767000", "213350.742000", "213351.743000", "213352.740000", "213353.727000", "213354.777000", "213355.739000", "213356.758000", "213357.748000", "213358.736000", "213359.738000", "213400.722000", "213401.729000", "213402.764000", "213403.740000", "213404.740000", "213405.740000", "213406.734000", "213407.741000", "213408.811000", "213409.738000", "213410.752000", "213411.784000"],
