{
  "AcquisitionMatrixPE": 96,
  "AcquisitionNumber": 1,
  "AcquisitionTime": "16:36:46.042500",
  "BaseResolution": 96,
  "BodyPartExamined": "BRAIN",
  "ConsistencyInfo": "N4_VE11C_LATEST_20160120",
  "ConversionSoftware": "dcm2niix",
  "ConversionSoftwareVersion": "v1.0.20190902",
  "DeviceSerialNumber": "66112",
  "DwellTime": 8.8e-06,
  "EchoNumber": 2,
  "EchoTime": 0.00738,
  "EchoTime1": 0.00492,
  "EchoTime2": 0.00738,
  "FlipAngle": 60,
  "ImageOrientationPatientDICOM": [
    0.999573,
    -0.0155292,
    0.0247489,
    0.0141321,
    0.99835,
    0.0556609
  ],
  "ImageType": [
    "ORIGINAL",
    "PRIMARY",
    "P",
    "ND"
  ],
  "ImagingFrequency": 123.252,
  "InPlanePhaseEncodingDirectionDICOM": "COL",
  "InstitutionAddress": "Maynard_3_Hanover_NH_US_03755",
  "InstitutionName": "Dartmouth_College_-_PBS",
  "InstitutionalDepartmentName": "Department",
  "IntendedFor": [
    "func/sub-sid000020_task-movie_run-01_bold.nii.gz",
    "func/sub-sid000020_task-movie_run-02_bold.nii.gz",
    "func/sub-sid000020_task-movie_run-03_bold.nii.gz",
    "func/sub-sid000020_task-movie_run-04_bold.nii.gz",
    "func/sub-sid000020_task-movie_run-05_bold.nii.gz"
  ],
  "MRAcquisitionType": "2D",
  "MagneticFieldStrength": 3,
  "Manufacturer": "Siemens",
  "ManufacturersModelName": "Prisma",
  "Modality": "MR",
  "PartialFourier": 1,
  "PatientPosition": "HFS",
  "PercentPhaseFOV": 100,
  "PhaseEncodingDirection": "j-",
  "PhaseEncodingSteps": 96,
  "PhaseResolution": 1,
  "PixelBandwidth": 590,
  "ProcedureStepDescription": "Gobbini_Matteo_1037_budapest",
  "ProtocolName": "fmap_acq-2.5mm",
  "PulseSequenceDetails": "%SiemensSeq%_gre_field_mapping",
  "ReceiveCoilActiveElements": "HEA;HEP",
  "ReceiveCoilName": "Head_32",
  "ReconMatrixPE": 96,
  "RepetitionTime": 0.675,
  "SAR": 0.0968589,
  "ScanningSequence": "GR",
  "SequenceName": "_fm2d2r",
  "SequenceVariant": "SP",
  "SeriesDescription": "fmap_acq-2.5mm",
  "SeriesNumber": 7,
  "ShimSetting": [
    4155,
    -7705,
    -7283,
    789,
    -54,
    -50,
    20,
    56
  ],
  "SliceThickness": 2.5,
  "SliceTiming": [
    0.34375,
    0,
    0.35938,
    0.01562,
    0.375,
    0.03125,
    0.375,
    0.04688,
    0.39062,
    0.0625,
    0.40625,
    0.07812,
    0.42188,
    0.09375,
    0.4375,
    0.10938,
    0.45312,
    0.10938,
    0.46875,
    0.125,
    0.48438,
    0.14062,
    0.5,
    0.15625,
    0.51562,
    0.17188,
    0.51562,
    0.1875,
    0.53125,
    0.20312,
    0.54688,
    0.21875,
    0.5625,
    0.23438,
    0.57812,
    0.23438,
    0.59375,
    0.25,
    0.60938,
    0.26562,
    0.625,
    0.28125,
    0.64062,
    0.29688,
    0.65625,
    0.3125,
    0.67188,
    0.32812
  ],
  "SoftwareVersions": "syngo_MR_E11",
  "SpacingBetweenSlices": 2.5,
  "StationName": "AWP66112",
  "TxRefAmp": 238.967,
  "dcmmeta_affine": [
    [
      -2.4989326000213623,
      0.03533024340867996,
      0.06393110752105713,
      117.18696594238281
    ],
    [
      0.038823097944259644,
      2.4958741664886475,
      0.13821887969970703,
      -114.12891387939453
    ],
    [
      0.06187228485941887,
      -0.13915227353572845,
      2.4953575134277344,
      -69.58059692382812
    ],
    [
      0.0,
      0.0,
      0.0,
      1.0
    ]
  ],
  "dcmmeta_reorient_transform": [
    [
      0.0,
      -1.0,
      0.0,
      95.0
    ],
    [
      1.0,
      0.0,
      0.0,
      0.0
    ],
    [
      0.0,
      0.0,
      -1.0,
      47.0
    ],
    [
      0.0,
      0.0,
      0.0,
      1.0
    ]
  ],
  "dcmmeta_shape": [
    96,
    96,
    48
  ],
  "dcmmeta_slice_dim": 2,
  "dcmmeta_version": 0.6,
  "global": {
    "const": {
      "AccessionNumber": "A001420",
      "AcquisitionMatrix": [
        96,
        0,
        0,
        96
      ],
      "AcquisitionNumber": 1,
      "AngioFlag": "N",
      "BitsAllocated": 16,
      "BitsStored": 12,
      "BodyPartExamined": "BRAIN",
      "Columns": 96,
      "EchoNumbers": 2,
      "EchoTime": 7.38,
      "EchoTrainLength": 0,
      "FlipAngle": 60.0,
      "HighBit": 11,
      "ImageOrientationPatient": [
        0.99957307588882,
        -0.015529238585,
        0.02474891325154,
        0.01413209721874,
        0.9983497118548,
        0.05566090789442
      ],
      "ImageType": [
        "ORIGINAL",
        "PRIMARY",
        "P",
        "ND"
      ],
      "ImagedNucleus": "1H",
      "ImagingFrequency": 123.252309,
      "InPlanePhaseEncodingDirection": "COL",
      "MRAcquisitionType": "2D",
      "MagneticFieldStrength": 3.0,
      "Manufacturer": "SIEMENS",
      "ManufacturerModelName": "Prisma",
      "Modality": "MR",
      "NumberOfAverages": 1.0,
      "NumberOfPhaseEncodingSteps": 96,
      "PercentPhaseFieldOfView": 100.0,
      "PercentSampling": 100.0,
      "PerformedProcedureStepStartTime": "162943.038000",
      "PhotometricInterpretation": "MONOCHROME2",
      "PixelBandwidth": 590.0,
      "PixelRepresentation": 0,
      "PixelSpacing": [
        2.5,
        2.5
      ],
      "ProtocolName": "fmap_acq-2.5mm",
      "RepetitionTime": 675.0,
      "RescaleIntercept": -4096.0,
      "RescaleSlope": 2.0,
      "RescaleType": "US",
      "Rows": 96,
      "SAR": 0.09685893465311,
      "SamplesPerPixel": 1,
      "ScanningSequence": "GR",
      "SequenceName": "*fm2d2r",
      "SequenceVariant": "SP",
      "SeriesDescription": "fmap_acq-2.5mm",
      "SeriesNumber": 7,
      "SeriesTime": "163855.662000",
      "SliceThickness": 2.5,
      "SoftwareVersions": "syngo MR E11",
      "SpacingBetweenSlices": 2.5,
      "SpecificCharacterSet": "ISO_IR 100",
      "StudyID": "1",
      "StudyTime": "162942.921000",
      "TransmitCoilName": "Body",
      "VariableFlipAngleFlag": "N",
      "WindowCenterWidthExplanation": "Algo1",
      "dBdt": 0.0
    },
    "slices": {
      "AcquisitionTime": [
        "163646.042500",
        "163645.705000",
        "163646.057500",
        "163645.720000",
        "163646.072500",
        "163645.735000",
        "163646.085000",
        "163645.747500",
        "163646.100000",
        "163645.762500",
        "163646.112500",
        "163645.777500",
        "163646.127500",
        "163645.790000",
        "163646.142500",
        "163645.805000",
        "163646.155000",
        "163645.817500",
        "163646.170000",
        "163645.832500",
        "163646.185000",
        "163645.847500",
        "163646.197500",
        "163645.860000",
        "163646.212500",
        "163645.875000",
        "163646.225000",
        "163645.890000",
        "163646.240000",
        "163645.902500",
        "163646.255000",
        "163645.917500",
        "163646.267500",
        "163645.930000",
        "163646.282500",
        "163645.945000",
        "163646.297500",
        "163645.960000",
        "163646.310000",
        "163645.972500",
        "163646.325000",
        "163645.987500",
        "163646.337500",
        "163646.000000",
        "163646.352500",
        "163646.015000",
        "163646.367500",
        "163646.030000"
      ],
      "ContentTime": [
        "163855.714000",
        "163855.664000",
        "163855.716000",
        "163855.667000",
        "163855.718000",
        "163855.669000",
        "163855.720000",
        "163855.671000",
        "163855.722000",
        "163855.673000",
        "163855.724000",
        "163855.675000",
        "163855.726000",
        "163855.677000",
        "163855.728000",
        "163855.679000",
        "163855.730000",
        "163855.681000",
        "163855.732000",
        "163855.683000",
        "163855.734000",
        "163855.685000",
        "163855.736000",
        "163855.687000",
        "163855.739000",
        "163855.689000",
        "163855.741000",
        "163855.691000",
        "163855.743000",
        "163855.693000",
        "163855.745000",
        "163855.695000",
        "163855.747000",
        "163855.698000",
        "163855.749000",
        "163855.700000",
        "163855.751000",
        "163855.702000",
        "163855.753000",
        "163855.704000",
        "163855.755000",
        "163855.706000",
        "163855.757000",
        "163855.708000",
        "163855.759000",
        "163855.710000",
        "163855.761000",
        "163855.712000"
      ],
      "CsaImage.ICE_Dims": [
        "X_2_1_1_1_1_1_25_1_1_1_1_18",
        "X_2_1_1_1_1_1_1_1_1_2_1_18",
        "X_2_1_1_1_1_1_26_1_1_3_1_18",
        "X_2_1_1_1_1_1_2_1_1_4_1_18",
        "X_2_1_1_1_1_1_27_1_1_5_1_18",
        "X_2_1_1_1_1_1_3_1_1_6_1_18",
        "X_2_1_1_1_1_1_28_1_1_7_1_18",
        "X_2_1_1_1_1_1_4_1_1_8_1_18",
        "X_2_1_1_1_1_1_29_1_1_9_1_18",
        "X_2_1_1_1_1_1_5_1_1_10_1_18",
        "X_2_1_1_1_1_1_30_1_1_11_1_18",
        "X_2_1_1_1_1_1_6_1_1_12_1_18",
        "X_2_1_1_1_1_1_31_1_1_13_1_18",
        "X_2_1_1_1_1_1_7_1_1_14_1_18",
        "X_2_1_1_1_1_1_32_1_1_15_1_18",
        "X_2_1_1_1_1_1_8_1_1_16_1_18",
        "X_2_1_1_1_1_1_33_1_1_17_1_18",
        "X_2_1_1_1_1_1_9_1_1_18_1_18",
        "X_2_1_1_1_1_1_34_1_1_19_1_18",
        "X_2_1_1_1_1_1_10_1_1_20_1_18",
        "X_2_1_1_1_1_1_35_1_1_21_1_18",
        "X_2_1_1_1_1_1_11_1_1_22_1_18",
        "X_2_1_1_1_1_1_36_1_1_23_1_18",
        "X_2_1_1_1_1_1_12_1_1_24_1_18",
        "X_2_1_1_1_1_1_37_1_1_25_1_18",
        "X_2_1_1_1_1_1_13_1_1_26_1_18",
        "X_2_1_1_1_1_1_38_1_1_27_1_18",
        "X_2_1_1_1_1_1_14_1_1_28_1_18",
        "X_2_1_1_1_1_1_39_1_1_29_1_18",
        "X_2_1_1_1_1_1_15_1_1_30_1_18",
        "X_2_1_1_1_1_1_40_1_1_31_1_18",
        "X_2_1_1_1_1_1_16_1_1_32_1_18",
        "X_2_1_1_1_1_1_41_1_1_33_1_18",
        "X_2_1_1_1_1_1_17_1_1_34_1_18",
        "X_2_1_1_1_1_1_42_1_1_35_1_18",
        "X_2_1_1_1_1_1_18_1_1_36_1_18",
        "X_2_1_1_1_1_1_43_1_1_37_1_18",
        "X_2_1_1_1_1_1_19_1_1_38_1_18",
        "X_2_1_1_1_1_1_44_1_1_39_1_18",
        "X_2_1_1_1_1_1_20_1_1_40_1_18",
        "X_2_1_1_1_1_1_45_1_1_41_1_18",
        "X_2_1_1_1_1_1_21_1_1_42_1_18",
        "X_2_1_1_1_1_1_46_1_1_43_1_18",
        "X_2_1_1_1_1_1_22_1_1_44_1_18",
        "X_2_1_1_1_1_1_47_1_1_45_1_18",
        "X_2_1_1_1_1_1_23_1_1_46_1_18",
        "X_2_1_1_1_1_1_48_1_1_47_1_18",
        "X_2_1_1_1_1_1_24_1_1_48_1_18"
      ],
      "CsaImage.ProtocolSliceNumber": [
        0,
        1,
        2,
        3,
        4,
        5,
        6,
        7,
        8,
        9,
        10,
        11,
        12,
        13,
        14,
        15,
        16,
        17,
        18,
        19,
        20,
        21,
        22,
        23,
        24,
        25,
        26,
        27,
        28,
        29,
        30,
        31,
        32,
        33,
        34,
        35,
        36,
        37,
        38,
        39,
        40,
        41,
        42,
        43,
        44,
        45,
        46,
        47
      ],
      "CsaImage.SlicePosition_PCS": [
        [
          -120.5433371,
          -122.97916295,
          -82.80004981
        ],
        [
          -120.60726821,
          -123.11738135,
          -80.30469612
        ],
        [
          -120.67119926,
          -123.25560023,
          -77.80934242
        ],
        [
          -120.73513037,
          -123.39381864,
          -75.31398109
        ],
        [
          -120.79906147,
          -123.53203704,
          -72.81862358
        ],
        [
          -120.86299258,
          -123.67025544,
          -70.32326606
        ],
        [
          -120.92692369,
          -123.80847384,
          -67.82790855
        ],
        [
          -120.9908548,
          -123.94669225,
          -65.33255104
        ],
        [
          -121.0547859,
          -124.08491113,
          -62.83719352
        ],
        [
          -121.11871701,
          -124.22312953,
          -60.34183601
        ],
        [
          -121.18264809,
          -124.36134793,
          -57.84647849
        ],
        [
          -121.2465792,
          -124.49956634,
          -55.35112098
        ],
        [
          -121.3105103,
          -124.63778474,
          -52.85576347
        ],
        [
          -121.37444141,
          -124.77600314,
          -50.36040595
        ],
        [
          -121.4383725,
          -124.91422154,
          -47.86504844
        ],
        [
          -121.50230361,
          -125.05244042,
          -45.36969093
        ],
        [
          -121.56623471,
          -125.19065883,
          -42.87433723
        ],
        [
          -121.63016582,
          -125.32887723,
          -40.37897781
        ],
        [
          -121.69409692,
          -125.46709563,
          -37.88362029
        ],
        [
          -121.75802803,
          -125.60531403,
          -35.38826278
        ],
        [
          -121.82195913,
          -125.74353244,
          -32.89290527
        ],
        [
          -121.88589023,
          -125.88175132,
          -30.39754775
        ],
        [
          -121.94982132,
          -126.01996924,
          -27.90219024
        ],
        [
          -122.01375243,
          -126.15818812,
          -25.40683368
        ],
        [
          -122.07768353,
          -126.29640605,
          -22.91147617
        ],
        [
          -122.14161464,
          -126.43462493,
          -20.41611865
        ],
        [
          -122.20554572,
          -126.57284381,
          -17.92076114
        ],
        [
          -122.26947683,
          -126.71106173,
          -15.4254041
        ],
        [
          -122.33340794,
          -126.84928061,
          -12.93004683
        ],
        [
          -122.39733904,
          -126.98749854,
          -10.43468938
        ],
        [
          -122.46127015,
          -127.12571742,
          -7.93933204
        ],
        [
          -122.52520126,
          -127.2639363,
          -5.44397453
        ],
        [
          -122.58913237,
          -127.40215423,
          -2.94861701
        ],
        [
          -122.65306341,
          -127.54037311,
          -0.4532595
        ],
        [
          -122.71699452,
          -127.67859103,
          2.04209706
        ],
        [
          -122.78092563,
          -127.81680991,
          4.53745457
        ],
        [
          -122.84485674,
          -127.95502784,
          7.03281304
        ],
        [
          -122.90878784,
          -128.09324672,
          9.52817055
        ],
        [
          -122.97271895,
          -128.2314656,
          12.02352616
        ],
        [
          -123.03665006,
          -128.36968352,
          14.51888367
        ],
        [
          -123.10058117,
          -128.5079024,
          17.01424119
        ],
        [
          -123.16451227,
          -128.64612033,
          19.5095987
        ],
        [
          -123.22844338,
          -128.78433921,
          22.00495621
        ],
        [
          -123.29237449,
          -128.92255713,
          24.50031563
        ],
        [
          -123.3563056,
          -129.06077601,
          26.99567315
        ],
        [
          -123.4202367,
          -129.19899489,
          29.49102685
        ],
        [
          -123.48416781,
          -129.33721282,
          31.98638436
        ],
        [
          -123.54809892,
          -129.4754317,
          34.48174187
        ]
      ],
      "CsaImage.TimeAfterStart": [
        1.015,
        0.6775,
        1.03,
        0.6925,
        1.045,
        0.7075,
        1.0575,
        0.72,
        1.0725,
        0.735,
        1.085,
        0.75,
        1.1,
        0.7625,
        1.115,
        0.7775,
        1.1275,
        0.79,
        1.1425,
        0.805,
        1.1575,
        0.82,
        1.17,
        0.8325,
        1.185,
        0.8475,
        1.1975,
        0.8625,
        1.2125,
        0.875,
        1.2275,
        0.89,
        1.24,
        0.9025,
        1.255,
        0.9175,
        1.27,
        0.9325,
        1.2825,
        0.945,
        1.2975,
        0.96,
        1.31,
        0.9725,
        1.325,
        0.9875,
        1.34,
        1.0025
      ],
      "ImagePositionPatient": [
        [
          -120.54333710344,
          -122.97916295006,
          -82.800049814371
        ],
        [
          -120.60726821096,
          -123.11738135292,
          -80.30469611564
        ],
        [
          -120.67119925887,
          -123.25560023262,
          -77.80934241691
        ],
        [
          -120.73513036639,
          -123.39381863548,
          -75.313981088785
        ],
        [
          -120.79906147392,
          -123.53203703835,
          -72.818623575357
        ],
        [
          -120.86299258144,
          -123.67025544121,
          -70.323266061929
        ],
        [
          -120.92692368896,
          -123.80847384407,
          -67.827908548501
        ],
        [
          -120.99085479648,
          -123.94669224693,
          -65.332551035074
        ],
        [
          -121.054785904,
          -124.08491112663,
          -62.837193521646
        ],
        [
          -121.11871701152,
          -124.2231295295,
          -60.341836008218
        ],
        [
          -121.18264808924,
          -124.36134793236,
          -57.84647849479
        ],
        [
          -121.24657919676,
          -124.49956633522,
          -55.351120981363
        ],
        [
          -121.31051030428,
          -124.63778473808,
          -52.855763467935
        ],
        [
          -121.3744414118,
          -124.77600314095,
          -50.360405954507
        ],
        [
          -121.43837250442,
          -124.91422154381,
          -47.86504844108
        ],
        [
          -121.50230361194,
          -125.05244042351,
          -45.369690927652
        ],
        [
          -121.56623471201,
          -125.19065882637,
          -42.874337228921
        ],
        [
          -121.6301658186,
          -125.32887722923,
          -40.378977808145
        ],
        [
          -121.69409692333,
          -125.4670956321,
          -37.883620294717
        ],
        [
          -121.75802802713,
          -125.60531403496,
          -35.388262781289
        ],
        [
          -121.82195913465,
          -125.74353243782,
          -32.892905267862
        ],
        [
          -121.88589022727,
          -125.88175131752,
          -30.397547754434
        ],
        [
          -121.94982131989,
          -126.01996924355,
          -27.902190241006
        ],
        [
          -122.01375242741,
          -126.15818812325,
          -25.406833681253
        ],
        [
          -122.07768353493,
          -126.29640604927,
          -22.911476167825
        ],
        [
          -122.14161464245,
          -126.43462492897,
          -20.416118654397
        ],
        [
          -122.20554572017,
          -126.57284380867,
          -17.92076114097
        ],
        [
          -122.26947682769,
          -126.7110617347,
          -15.425404104379
        ],
        [
          -122.33340793521,
          -126.84928061439,
          -12.93004682937
        ],
        [
          -122.39733904273,
          -126.98749854042,
          -10.434689375547
        ],
        [
          -122.46127015025,
          -127.12571742012,
          -7.939332040933
        ],
        [
          -122.52520125777,
          -127.26393629982,
          -5.4439745275053
        ],
        [
          -122.5891323653,
          -127.40215422585,
          -2.9486170140776
        ],
        [
          -122.65306341321,
          -127.54037310554,
          -0.4532595006498
        ],
        [
          -122.71699452073,
          -127.67859103157,
          2.0420970591036
        ],
        [
          -122.78092562825,
          -127.81680991127,
          4.5374545725313
        ],
        [
          -122.84485673578,
          -127.9550278373,
          7.0328130396334
        ],
        [
          -122.9087878433,
          -128.093246717,
          9.5281705530611
        ],
        [
          -122.97271895082,
          -128.23146559669,
          12.02352615914
        ],
        [
          -123.03665005834,
          -128.36968352272,
          14.518883672568
        ],
        [
          -123.10058116586,
          -128.50790240242,
          17.014241185996
        ],
        [
          -123.16451227338,
          -128.64612032845,
          19.509598699423
        ],
        [
          -123.2284433809,
          -128.78433920814,
          22.004956212851
        ],
        [
          -123.29237448842,
          -128.92255713417,
          24.500315633627
        ],
        [
          -123.35630559594,
          -129.06077601387,
          26.995673147055
        ],
        [
          -123.42023670346,
          -129.19899489357,
          29.491026845786
        ],
        [
          -123.48416781099,
          -129.3372128196,
          31.986384359213
        ],
        [
          -123.54809891851,
          -129.47543169929,
          34.481741872641
        ]
      ],
      "InstanceCreationTime": [
        "163855.714000",
        "163855.664000",
        "163855.716000",
        "163855.667000",
        "163855.718000",
        "163855.669000",
        "163855.720000",
        "163855.671000",
        "163855.722000",
        "163855.673000",
        "163855.724000",
        "163855.675000",
        "163855.726000",
        "163855.677000",
        "163855.728000",
        "163855.679000",
        "163855.730000",
        "163855.681000",
        "163855.732000",
        "163855.683000",
        "163855.734000",
        "163855.685000",
        "163855.736000",
        "163855.687000",
        "163855.739000",
        "163855.689000",
        "163855.741000",
        "163855.691000",
        "163855.743000",
        "163855.693000",
        "163855.745000",
        "163855.695000",
        "163855.747000",
        "163855.698000",
        "163855.749000",
        "163855.700000",
        "163855.751000",
        "163855.702000",
        "163855.753000",
        "163855.704000",
        "163855.755000",
        "163855.706000",
        "163855.757000",
        "163855.708000",
        "163855.759000",
        "163855.710000",
        "163855.761000",
        "163855.712000"
      ],
      "InstanceNumber": [
        1,
        2,
        3,
        4,
        5,
        6,
        7,
        8,
        9,
        10,
        11,
        12,
        13,
        14,
        15,
        16,
        17,
        18,
        19,
        20,
        21,
        22,
        23,
        24,
        25,
        26,
        27,
        28,
        29,
        30,
        31,
        32,
        33,
        34,
        35,
        36,
        37,
        38,
        39,
        40,
        41,
        42,
        43,
        44,
        45,
        46,
        47,
        48
      ],
      "LargestImagePixelValue": [
        4093,
        4095,
        4095,
        4093,
        4093,
        4093,
        4093,
        4095,
        4095,
        4093,
        4094,
        4095,
        4095,
        4091,
        4093,
        4092,
        4094,
        4082,
        4094,
        4095,
        4089,
        4094,
        4092,
        4095,
        4092,
        4091,
        4093,
        4095,
        4087,
        4095,
        4095,
        4092,
        4095,
        4094,
        4090,
        4093,
        4095,
        4095,
        4091,
        4095,
        4095,
        4094,
        4093,
        4092,
        4094,
        4095,
        4094,
        4093
      ],
      "SliceLocation": [
        -72.764501691989,
        -70.264505372959,
        -67.764509029089,
        -65.264505094832,
        -62.764504968188,
        -60.264504841545,
        -57.764504714901,
        -55.264504588257,
        -52.76450443525,
        -50.264504308606,
        -47.764504182725,
        -45.264504056081,
        -42.764503929437,
        -40.264503802793,
        -37.764503676531,
        -35.264503523524,
        -32.764507204684,
        -30.264505174257,
        -27.764505047685,
        -25.264504921136,
        -22.764504794492,
        -20.264504641867,
        -17.764504541967,
        -15.264505340863,
        -12.764505240583,
        -10.264505087576,
        -7.764504935331,
        -5.264505311002,
        -2.7645053959709,
        -0.2645053551842,
        2.2354946193408,
        4.7354947723477,
        7.2354948726284,
        9.7354950241111,
        12.235494172488,
        14.735494325495,
        17.235495377679,
        19.735495530686,
        22.235493779887,
        24.735493880167,
        27.235494033174,
        29.735494133455,
        32.235494286462,
        34.735496290549,
        37.235496443556,
        39.73549278895,
        42.23549288923,
        44.735493042237
      ],
      "SmallestImagePixelValue": [
        0,
        2,
        0,
        0,
        1,
        0,
        0,
        0,
        0,
        0,
        0,
        0,
        0,
        0,
        0,
        0,
        1,
        1,
        0,
        1,
        0,
        0,
        1,
        0,
        3,
        9,
        2,
        2,
        0,
        0,
        1,
        5,
        0,
        1,
        2,
        0,
        0,
        0,
        0,
        0,
        1,
        0,
        0,
        0,
        0,
        1,
        0,
        0
      ],
      "WindowCenter": [
        -338.0,
        -322.0,
        -358.0,
        -290.0,
        -252.0,
        -204.0,
        -204.0,
        -254.0,
        -196.0,
        -312.0,
        -298.0,
        -288.0,
        -206.0,
        -314.0,
        -232.0,
        -286.0,
        -316.0,
        -310.0,
        -352.0,
        -332.0,
        -302.0,
        -350.0,
        -298.0,
        -262.0,
        -236.0,
        -238.0,
        -246.0,
        -244.0,
        -266.0,
        -250.0,
        -250.0,
        -264.0,
        -258.0,
        -278.0,
        -262.0,
        -282.0,
        -266.0,
        -248.0,
        -214.0,
        -92.0,
        -146.0,
        -156.0,
        -172.0,
        -218.0,
        -228.0,
        -282.0,
        -304.0,
        -316.0
      ],
      "WindowWidth": [
        6274.0,
        6412.0,
        6452.0,
        6348.0,
        6290.0,
        6304.0,
        6366.0,
        6526.0,
        6530.0,
        6394.0,
        6272.0,
        6194.0,
        6154.0,
        6070.0,
        6050.0,
        5886.0,
        5792.0,
        5760.0,
        5526.0,
        5340.0,
        5048.0,
        4672.0,
        4640.0,
        4616.0,
        4586.0,
        4596.0,
        4614.0,
        4628.0,
        4634.0,
        4634.0,
        4608.0,
        4636.0,
        4624.0,
        4648.0,
        4642.0,
        4670.0,
        4672.0,
        4692.0,
        4696.0,
        5336.0,
        5344.0,
        5652.0,
        5670.0,
        5948.0,
        6042.0,
        6162.0,
        6156.0,
        6334.0
      ]
    }
  }
}