{
  "AcquisitionMatrixPE": 96,
  "AcquisitionNumber": 1,
  "AcquisitionTime": "17:58:47.447500",
  "BandwidthPerPixelPhaseEncode": 18.939,
  "BaseResolution": 96,
  "BodyPartExamined": "BRAIN",
  "ConsistencyInfo": "N4_VE11C_LATEST_20160120",
  "ConversionSoftware": "dcm2niix",
  "ConversionSoftwareVersion": "v1.0.20190902",
  "DerivedVendorReportedEchoSpacing": 0.000550011,
  "DeviceSerialNumber": "66112",
  "DwellTime": 2.2e-06,
  "EchoTime": 0.033,
  "EchoTrainLength": 96,
  "EffectiveEchoSpacing": 0.000550011,
  "FlipAngle": 59,
  "ImageOrientationPatientDICOM": [0.999875, 0.0156172, -0.00241915, -0.0157073, 0.998938, -0.0433059],
  "ImageType": [
    "ORIGINAL",
    "PRIMARY",
    "FMRI",
    "NONE",
    "ND",
    "NORM",
    "MOSAIC"
],
  "ImagingFrequency": 123.252,
  "InPlanePhaseEncodingDirectionDICOM": "COL",
  "InstitutionAddress": "Maynard_3_Hanover_NH_US_03755",
  "InstitutionName": "Dartmouth_College_-_PBS",
  "InstitutionalDepartmentName": "Department",
  "MRAcquisitionType": "2D",
  "MagneticFieldStrength": 3,
  "Manufacturer": "Siemens",
  "ManufacturersModelName": "Prisma",
  "Modality": "MR",
  "MultibandAccelerationFactor": 4,
  "PartialFourier": 1,
  "PatientPosition": "HFS",
  "PercentPhaseFOV": 100,
  "PhaseEncodingDirection": "j-",
  "PhaseEncodingSteps": 96,
  "PhaseResolution": 1,
  "PixelBandwidth": 2365,
  "ProcedureStepDescription": "Gobbini_Matteo_1037_budapest",
  "ProtocolName": "func_run-04_task-movie",
  "PulseSequenceDetails": "%SiemensSeq%_ep2d_bold",
  "ReceiveCoilActiveElements": "HEA;HEP",
  "ReceiveCoilName": "Head_32",
  "ReconMatrixPE": 96,
  "RefLinesPE": 12,
  "RepetitionTime": 1,
  "SAR": 0.0481378,
  "ScanOptions": "FS",
  "ScanningSequence": "EP",
  "SequenceName": "_epfid2d1_96",
  "SequenceVariant": "SK",
  "SeriesDescription": "func_run-04_task-movie",
  "SeriesNumber": 29,
  "ShimSetting": [4133, -7706, -7320, 442, -45, 29, 2, 92],
  "SliceThickness": 2.5,
  "SliceTiming": [0.735, 0, 0.49, 0.0825, 0.5725, 0.165, 0.655, 0.3275, 0.8175, 0.41, 0.9, 0.245, 0.735, 0, 0.49, 0.0825, 0.5725, 0.165, 0.655, 0.3275, 0.8175, 0.41, 0.9, 0.245, 0.735, 0, 0.49, 0.0825, 0.5725, 0.165, 0.655, 0.3275, 0.8175, 0.41, 0.9, 0.245, 0.735, 0, 0.49, 0.0825, 0.5725, 0.165, 0.655, 0.3275, 0.8175, 0.41, 0.9, 0.245],
  "SoftwareVersions": "syngo_MR_E11",
  "SpacingBetweenSlices": 2.5,
  "StationName": "AWP66112",
  "TaskName": "movie",
  "TotalReadoutTime": 0.0522511,
  "TxRefAmp": 257.946,
  "dcmmeta_affine": [
    [-2.499687910079956, -0.03926827758550644, -0.004350660834461451, 124.35991668701172],
    [-0.039042916148900986, 2.4973459243774414, -0.10834610462188721, -105.15505981445312],
    [-0.0060478681698441505, 0.10826462507247925, 2.497647285461426, -97.12120056152344],
    [0.0, 0.0, 0.0, 1.0]
],
  "dcmmeta_reorient_transform": [
    [0.0, -1.0, 0.0, 95.0],
    [1.0, 0.0, 0.0, 0.0],
    [0.0, 0.0, 1.0, 0.0],
    [0.0, 0.0, 0.0, 1.0]
],
  "dcmmeta_shape": [96, 96, 48, 618],
  "dcmmeta_slice_dim": 2,
  "dcmmeta_version": 0.6,
  "global": {
    "const": {
      "AccessionNumber": "A001441",
      "AcquisitionMatrix": [96, 0, 0, 96],
      "AngioFlag": "N",
      "BitsAllocated": 16,
      "BitsStored": 12,
      "BodyPartExamined": "BRAIN",
      "Columns": 672,
      "EchoNumbers": 1,
      "EchoTime": 33.0,
      "EchoTrainLength": 96,
      "FlipAngle": 59.0,
      "HighBit": 11,
      "ImageOrientationPatient": [0.99987511813121, 0.01561716582648, -0.0024191472999, -0.015707311095, 0.99893837831083, -0.0433058508275],
      "ImagePositionPatient": [-829.23025454702, -862.57279316848, -53.914060655089],
      "ImageType": [
        "ORIGINAL",
        "PRIMARY",
        "FMRI",
        "NONE",
        "ND",
        "NORM",
        "MOSAIC"
],
      "ImagedNucleus": "1H",
      "ImagingFrequency": 123.252321,
      "InPlanePhaseEncodingDirection": "COL",
      "MRAcquisitionType": "2D",
      "MagneticFieldStrength": 3.0,
      "Manufacturer": "SIEMENS",
      "ManufacturerModelName": "Prisma",
      "Modality": "MR",
      "NumberOfAverages": 1.0,
      "NumberOfPhaseEncodingSteps": 96,
      "PercentPhaseFieldOfView": 100.0,
      "PercentSampling": 100.0,
      "PerformedProcedureStepStartTime": "170538.148000",
      "PhotometricInterpretation": "MONOCHROME2",
      "PixelBandwidth": 2365.0,
      "PixelRepresentation": 0,
      "PixelSpacing": [2.5, 2.5],
      "ProtocolName": "func_run-04_task-movie",
      "RepetitionTime": 1000.0,
      "Rows": 672,
      "SAR": 0.04813779504642,
      "SamplesPerPixel": 1,
      "ScanOptions": "FS",
      "ScanningSequence": "EP",
      "SequenceName": "*epfid2d1_96",
      "SequenceVariant": "SK",
      "SeriesDescription": "func_run-04_task-movie",
      "SeriesNumber": 29,
      "SeriesTime": "175848.812000",
      "SliceLocation": -92.688963923949,
      "SliceThickness": 2.5,
      "SmallestImagePixelValue": 0,
      "SoftwareVersions": "syngo MR E11",
      "SpacingBetweenSlices": 2.4999999737864,
      "SpecificCharacterSet": "ISO_IR 100",
      "StudyID": "1",
      "StudyTime": "170538.063000",
      "TransmitCoilName": "Body",
      "VariableFlipAngleFlag": "N",
      "WindowCenterWidthExplanation": "Algo1",
      "dBdt": 0.0},
    "slices": {}
  },
  "time": {
    "samples": {
      "AcquisitionNumber": [1, 2, 3, 4, 5, 6, 7, 8, 9, 10, 11, 12, 13, 14, 15, 16, 17, 18, 19, 20, 21, 22, 23, 24, 25, 26, 27, 28, 29, 30, 31, 32, 33, 34, 35, 36, 37, 38, 39, 40, 41, 42, 43, 44, 45, 46, 47, 48, 49, 50, 51, 52, 53, 54, 55, 56, 57, 58, 59, 60, 61, 62, 63, 64, 65, 66, 67, 68, 69, 70, 71, 72, 73, 74, 75, 76, 77, 78, 79, 80, 81, 82, 83, 84, 85, 86, 87, 88, 89, 90, 91, 92, 93, 94, 95, 96, 97, 98, 99, 100, 101, 102, 103, 104, 105, 106, 107, 108, 109, 110, 111, 112, 113, 114, 115, 116, 117, 118, 119, 120, 121, 122, 123, 124, 125, 126, 127, 128, 129, 130, 131, 132, 133, 134, 135, 136, 137, 138, 139, 140, 141, 142, 143, 144, 145, 146, 147, 148, 149, 150, 151, 152, 153, 154, 155, 156, 157, 158, 159, 160, 161, 162, 163, 164, 165, 166, 167, 168, 169, 170, 171, 172, 173, 174, 175, 176, 177, 178, 179, 180, 181, 182, 183, 184, 185, 186, 187, 188, 189, 190, 191, 192, 193, 194, 195, 196, 197, 198, 199, 200, 201, 202, 203, 204, 205, 206, 207, 208, 209, 210, 211, 212, 213, 214, 215, 216, 217, 218, 219, 220, 221, 222, 223, 224, 225, 226, 227, 228, 229, 230, 231, 232, 233, 234, 235, 236, 237, 238, 239, 240, 241, 242, 243, 244, 245, 246, 247, 248, 249, 250, 251, 252, 253, 254, 255, 256, 257, 258, 259, 260, 261, 262, 263, 264, 265, 266, 267, 268, 269, 270, 271, 272, 273, 274, 275, 276, 277, 278, 279, 280, 281, 282, 283, 284, 285, 286, 287, 288, 289, 290, 291, 292, 293, 294, 295, 296, 297, 298, 299, 300, 301, 302, 303, 304, 305, 306, 307, 308, 309, 310, 311, 312, 313, 314, 315, 316, 317, 318, 319, 320, 321, 322, 323, 324, 325, 326, 327, 328, 329, 330, 331, 332, 333, 334, 335, 336, 337, 338, 339, 340, 341, 342, 343, 344, 345, 346, 347, 348, 349, 350, 351, 352, 353, 354, 355, 356, 357, 358, 359, 360, 361, 362, 363, 364, 365, 366, 367, 368, 369, 370, 371, 372, 373, 374, 375, 376, 377, 378, 379, 380, 381, 382, 383, 384, 385, 386, 387, 388, 389, 390, 391, 392, 393, 394, 395, 396, 397, 398, 399, 400, 401, 402, 403, 404, 405, 406, 407, 408, 409, 410, 411, 412, 413, 414, 415, 416, 417, 418, 419, 420, 421, 422, 423, 424, 425, 426, 427, 428, 429, 430, 431, 432, 433, 434, 435, 436, 437, 438, 439, 440, 441, 442, 443, 444, 445, 446, 447, 448, 449, 450, 451, 452, 453, 454, 455, 456, 457, 458, 459, 460, 461, 462, 463, 464, 465, 466, 467, 468, 469, 470, 471, 472, 473, 474, 475, 476, 477, 478, 479, 480, 481, 482, 483, 484, 485, 486, 487, 488, 489, 490, 491, 492, 493, 494, 495, 496, 497, 498, 499, 500, 501, 502, 503, 504, 505, 506, 507, 508, 509, 510, 511, 512, 513, 514, 515, 516, 517, 518, 519, 520, 521, 522, 523, 524, 525, 526, 527, 528, 529, 530, 531, 532, 533, 534, 535, 536, 537, 538, 539, 540, 541, 542, 543, 544, 545, 546, 547, 548, 549, 550, 551, 552, 553, 554, 555, 556, 557, 558, 559, 560, 561, 562, 563, 564, 565, 566, 567, 568, 569, 570, 571, 572, 573, 574, 575, 576, 577, 578, 579, 580, 581, 582, 583, 584, 585, 586, 587, 588, 589, 590, 591, 592, 593, 594, 595, 596, 597, 598, 599, 600, 601, 602, 603, 604, 605, 606, 607, 608, 609, 610, 611, 612, 613, 614, 615, 616, 617, 618],
      "AcquisitionTime": ["175847.447500", "175848.447500", "175849.447500", "175850.447500", "175851.447500", "175852.447500", "175853.447500", "175854.447500", "175855.447500", "175856.447500", "175857.447500", "175858.447500", "175859.447500", "175900.447500", "175901.447500", "175902.447500", "175903.447500", "175904.447500", "175905.447500", "175906.447500", "175907.447500", "175908.447500", "175909.447500", "175910.447500", "175911.447500", "175912.447500", "175913.447500", "175914.447500", "175915.447500", "175916.447500", "175917.447500", "175918.447500", "175919.447500", "175920.447500", "175921.447500", "175922.447500", "175923.447500", "175924.447500", "175925.447500", "175926.447500", "175927.447500", "175928.447500", "175929.447500", "175930.447500", "175931.447500", "175932.447500", "175933.447500", "175934.447500", "175935.447500", "175936.447500", "175937.447500", "175938.447500", "175939.447500", "175940.447500", "175941.447500", "175942.447500", "175943.447500", "175944.447500", "175945.447500", "175946.447500", "175947.447500", "175948.447500", "175949.447500", "175950.447500", "175951.447500", "175952.447500", "175953.447500", "175954.447500", "175955.447500", "175956.447500", "175957.447500", "175958.447500", "175959.447500", "180000.447500", "180001.447500", "180002.447500", "180003.447500", "180004.447500", "180005.447500", "180006.447500", "180007.447500", "180008.447500", "180009.447500", "180010.447500", "180011.447500", "180012.447500", "180013.447500", "180014.447500", "180015.447500", "180016.447500", "180017.447500", "180018.447500", "180019.447500", "180020.447500", "180021.447500", "180022.447500", "180023.447500", "180024.447500", "180025.447500", "180026.447500", "180027.447500", "180028.447500", "180029.447500", "180030.447500", "180031.447500", "180032.447500", "180033.447500", "180034.447500", "180035.447500", "180036.447500", "180037.447500", "180038.447500", "180039.447500", "180040.447500", "180041.447500", "180042.447500", "180043.447500", "180044.447500", "180045.447500", "180046.447500", "180047.447500", "180048.447500", "180049.447500", "180050.447500", "180051.447500", "180052.447500", "180053.447500", "180054.447500", "180055.447500", "180056.447500", "180057.447500", "180058.447500", "180059.447500", "180100.447500", "180101.447500", "180102.447500", "180103.447500", "180104.447500", "180105.447500", "180106.447500", "180107.447500", "180108.447500", "180109.447500", "180110.447500", "180111.447500", "180112.447500", "180113.447500", "180114.447500", "180115.447500", "180116.447500", "180117.447500", "180118.447500", "180119.447500", "180120.447500", "180121.447500", "180122.447500", "180123.447500", "180124.447500", "180125.447500", "180126.447500", "180127.447500", "180128.447500", "180129.447500", "180130.447500", "180131.447500", "180132.447500", "180133.447500", "180134.447500", "180135.447500", "180136.447500", "180137.447500", "180138.447500", "180139.447500", "180140.447500", "180141.447500", "180142.447500", "180143.447500", "180144.447500", "180145.447500", "180146.447500", "180147.447500", "180148.447500", "180149.447500", "180150.447500", "180151.447500", "180152.447500", "180153.447500", "180154.447500", "180155.447500", "180156.447500", "180157.447500", "180158.447500", "180159.447500", "180200.447500", "180201.447500", "180202.447500", "180203.447500", "180204.447500", "180205.447500", "180206.447500", "180207.447500", "180208.447500", "180209.447500", "180210.447500", "180211.447500", "180212.447500", "180213.447500", "180214.447500", "180215.447500", "180216.447500", "180217.447500", "180218.447500", "180219.447500", "180220.447500", "180221.447500", "180222.447500", "180223.447500", "180224.447500", "180225.447500", "180226.447500", "180227.447500", "180228.447500", "180229.447500", "180230.447500", "180231.447500", "180232.447500", "180233.447500", "180234.447500", "180235.447500", "180236.447500", "180237.447500", "180238.447500", "180239.447500", "180240.447500", "180241.447500", "180242.447500", "180243.447500", "180244.447500", "180245.447500", "180246.447500", "180247.447500", "180248.447500", "180249.447500", "180250.447500", "180251.447500", "180252.447500", "180253.447500", "180254.447500", "180255.447500", "180256.447500", "180257.447500", "180258.447500", "180259.447500", "180300.447500", "180301.447500", "180302.447500", "180303.447500", "180304.447500", "180305.447500", "180306.447500", "180307.447500", "180308.447500", "180309.447500", "180310.447500", "180311.447500", "180312.447500", "180313.447500", "180314.447500", "180315.447500", "180316.447500", "180317.447500", "180318.447500", "180319.447500", "180320.447500", "180321.447500", "180322.447500", "180323.447500", "180324.447500", "180325.447500", "180326.447500", "180327.447500", "180328.447500", "180329.447500", "180330.447500", "180331.447500", "180332.447500", "180333.447500", "180334.447500", "180335.447500", "180336.447500", "180337.447500", "180338.447500", "180339.447500", "180340.447500", "180341.447500", "180342.447500", "180343.447500", "180344.447500", "180345.447500", "180346.447500", "180347.447500", "180348.447500", "180349.447500", "180350.447500", "180351.447500", "180352.447500", "180353.447500", "180354.447500", "180355.447500", "180356.447500", "180357.447500", "180358.447500", "180359.447500", "180400.447500", "180401.447500", "180402.447500", "180403.447500", "180404.447500", "180405.447500", "180406.447500", "180407.447500", "180408.447500", "180409.447500", "180410.447500", "180411.447500", "180412.447500", "180413.447500", "180414.447500", "180415.447500", "180416.447500", "180417.447500", "180418.447500", "180419.447500", "180420.447500", "180421.447500", "180422.447500", "180423.447500", "180424.447500", "180425.447500", "180426.447500", "180427.447500", "180428.447500", "180429.447500", "180430.447500", "180431.447500", "180432.447500", "180433.447500", "180434.447500", "180435.447500", "180436.447500", "180437.447500", "180438.447500", "180439.447500", "180440.447500", "180441.447500", "180442.447500", "180443.447500", "180444.447500", "180445.447500", "180446.447500", "180447.447500", "180448.447500", "180449.447500", "180450.447500", "180451.447500", "180452.447500", "180453.447500", "180454.447500", "180455.447500", "180456.447500", "180457.447500", "180458.447500", "180459.447500", "180500.447500", "180501.447500", "180502.447500", "180503.447500", "180504.447500", "180505.447500", "180506.447500", "180507.447500", "180508.447500", "180509.447500", "180510.447500", "180511.447500", "180512.447500", "180513.447500", "180514.447500", "180515.447500", "180516.447500", "180517.447500", "180518.447500", "180519.447500", "180520.447500", "180521.447500", "180522.447500", "180523.447500", "180524.447500", "180525.447500", "180526.447500", "180527.447500", "180528.447500", "180529.447500", "180530.447500", "180531.447500", "180532.447500", "180533.447500", "180534.447500", "180535.447500", "180536.447500", "180537.447500", "180538.447500", "180539.447500", "180540.447500", "180541.447500", "180542.447500", "180543.447500", "180544.447500", "180545.447500", "180546.447500", "180547.447500", "180548.447500", "180549.447500", "180550.447500", "180551.447500", "180552.447500", "180553.447500", "180554.447500", "180555.447500", "180556.447500", "180557.447500", "180558.447500", "180559.447500", "180600.447500", "180601.447500", "180602.447500", "180603.447500", "180604.447500", "180605.447500", "180606.447500", "180607.447500", "180608.447500", "180609.447500", "180610.447500", "180611.447500", "180612.447500", "180613.447500", "180614.447500", "180615.447500", "180616.447500", "180617.447500", "180618.447500", "180619.447500", "180620.447500", "180621.447500", "180622.447500", "180623.447500", "180624.447500", "180625.447500", "180626.447500", "180627.447500", "180628.447500", "180629.447500", "180630.447500", "180631.447500", "180632.447500", "180633.447500", "180634.447500", "180635.447500", "180636.447500", "180637.447500", "180638.447500", "180639.447500", "180640.447500", "180641.447500", "180642.447500", "180643.447500", "180644.447500", "180645.447500", "180646.447500", "180647.447500", "180648.447500", "180649.447500", "180650.447500", "180651.447500", "180652.447500", "180653.447500", "180654.447500", "180655.447500", "180656.447500", "180657.447500", "180658.447500", "180659.447500", "180700.447500", "180701.447500", "180702.447500", "180703.447500", "180704.447500", "180705.447500", "180706.447500", "180707.447500", "180708.447500", "180709.447500", "180710.447500", "180711.447500", "180712.447500", "180713.447500", "180714.447500", "180715.447500", "180716.447500", "180717.447500", "180718.447500", "180719.447500", "180720.447500", "180721.447500", "180722.447500", "180723.447500", "180724.447500", "180725.447500", "180726.447500", "180727.447500", "180728.447500", "180729.447500", "180730.447500", "180731.447500", "180732.447500", "180733.447500", "180734.447500", "180735.447500", "180736.447500", "180737.447500", "180738.447500", "180739.447500", "180740.447500", "180741.447500", "180742.447500", "180743.447500", "180744.447500", "180745.447500", "180746.447500", "180747.447500", "180748.447500", "180749.447500", "180750.447500", "180751.447500", "180752.447500", "180753.447500", "180754.447500", "180755.447500", "180756.447500", "180757.447500", "180758.447500", "180759.447500", "180800.447500", "180801.447500", "180802.447500", "180803.447500", "180804.447500", "180805.447500", "180806.447500", "180807.447500", "180808.447500", "180809.447500", "180810.447500", "180811.447500", "180812.447500", "180813.447500", "180814.447500", "180815.447500", "180816.447500", "180817.447500", "180818.447500", "180819.447500", "180820.447500", "180821.447500", "180822.447500", "180823.447500", "180824.447500", "180825.447500", "180826.447500", "180827.447500", "180828.447500", "180829.447500", "180830.447500", "180831.447500", "180832.447500", "180833.447500", "180834.447500", "180835.447500", "180836.447500", "180837.447500", "180838.447500", "180839.447500", "180840.447500", "180841.447500", "180842.447500", "180843.447500", "180844.447500", "180845.447500", "180846.447500", "180847.447500", "180848.447500", "180849.447500", "180850.447500", "180851.447500", "180852.447500", "180853.447500", "180854.447500", "180855.447500", "180856.447500", "180857.447500", "180858.447500", "180859.447500", "180900.447500", "180901.447500", "180902.447500", "180903.447500", "180904.447500"],
      "ContentTime": ["175848.816000", "175849.554000", "175850.555000", "175851.531000", "175852.557000", "175853.530000", "175854.552000", "175855.547000", "175856.513000", "175857.514000", "175858.532000", "175859.575000", "175900.538000", "175901.528000", "175902.522000", "175903.533000", "175904.572000", "175905.552000", "175906.574000", "175907.519000", "175908.529000", "175909.539000", "175910.565000", "175911.555000", "175912.556000", "175913.546000", "175914.540000", "175915.557000", "175916.528000", "175917.555000", "175918.549000", "175919.551000", "175920.535000", "175921.536000", "175922.538000", "175923.560000", "175924.570000", "175925.538000", "175926.534000", "175927.548000", "175928.553000", "175929.567000", "175930.555000", "175931.559000", "175932.556000", "175933.548000", "175934.550000", "175935.571000", "175936.556000", "175937.553000", "175938.550000", "175939.568000", "175940.579000", "175941.548000", "175942.552000", "175943.543000", "175944.554000", "175945.532000", "175946.555000", "175947.636000", "175948.547000", "175949.516000", "175950.539000", "175951.540000", "175952.534000", "175953.535000", "175954.556000", "175955.544000", "175956.543000", "175957.571000", "175958.522000", "175959.511000", "180000.571000", "180001.522000", "180002.539000", "180003.538000", "180004.527000", "180005.542000", "180006.589000", "180007.596000", "180008.597000", "180009.558000", "180010.547000", "180011.573000", "180012.524000", "180013.550000", "180014.545000", "180015.544000", "180016.543000", "180017.548000", "180018.536000", "180019.556000", "180020.563000", "180021.544000", "180022.542000", "180023.523000", "180024.531000", "180025.523000", "180026.509000", "180027.533000", "180028.550000", "180029.530000", "180030.549000", "180031.537000", "180032.559000", "180033.574000", "180034.536000", "180035.568000", "180036.572000", "180037.574000", "180038.596000", "180039.543000", "180040.537000", "180041.582000", "180042.570000", "180043.503000", "180044.543000", "180045.551000", "180046.569000", "180047.542000", "180048.536000", "180049.576000", "180050.510000", "180051.522000", "180052.559000", "180053.569000", "180054.543000", "180055.545000", "180056.559000", "180057.585000", "180058.584000", "180059.593000", "180100.516000", "180101.529000", "180102.535000", "180103.538000", "180104.511000", "180105.551000", "180106.555000", "180107.569000", "180108.560000", "180109.542000", "180110.555000", "180111.525000", "180112.538000", "180113.542000", "180114.556000", "180115.557000", "180116.548000", "180117.557000", "180118.567000", "180119.547000", "180120.553000", "180121.530000", "180122.539000", "180123.533000", "180124.549000", "180125.523000", "180126.552000", "180127.557000", "180128.536000", "180129.531000", "180130.582000", "180131.544000", "180132.542000", "180133.555000", "180134.547000", "180135.548000", "180136.564000", "180137.553000", "180138.576000", "180139.512000", "180140.507000", "180141.553000", "180142.555000", "180143.573000", "180144.531000", "180145.563000", "180146.554000", "180147.601000", "180148.572000", "180149.536000", "180150.536000", "180151.581000", "180152.535000", "180153.550000", "180154.553000", "180155.549000", "180156.549000", "180157.537000", "180158.552000", "180159.532000", "180200.546000", "180201.543000", "180202.543000", "180203.530000", "180204.526000", "180205.558000", "180206.523000", "180207.551000", "180208.566000", "180209.570000", "180210.543000", "180211.538000", "180212.550000", "180213.536000", "180214.543000", "180215.550000", "180216.541000", "180217.519000", "180218.519000", "180219.548000", "180220.531000", "180221.522000", "180222.533000", "180223.543000", "180224.533000", "180225.555000", "180226.543000", "180227.541000", "180228.536000", "180229.558000", "180230.549000", "180231.558000", "180232.549000", "180233.568000", "180234.542000", "180235.541000", "180236.548000", "180237.537000", "180238.526000", "180239.535000", "180240.554000", "180241.541000", "180242.550000", "180243.548000", "180244.567000", "180245.539000", "180246.553000", "180247.530000", "180248.563000", "180249.573000", "180250.558000", "180251.556000", "180252.538000", "180253.520000", "180254.559000", "180255.550000", "180256.508000", "180257.547000", "180258.526000", "180259.581000", "180300.546000", "180301.526000", "180302.547000", "180303.549000", "180304.529000", "180305.560000", "180306.560000", "180307.528000", "180308.556000", "180309.550000", "180310.546000", "180311.531000", "180312.602000", "180313.542000", "180314.530000", "180315.540000", "180316.541000", "180317.540000", "180318.553000", "180319.552000", "180320.530000", "180321.541000", "180322.524000", "180323.526000", "180324.541000", "180325.540000", "180326.542000", "180327.548000", "180328.543000", "180329.552000", "180330.550000", "180331.542000", "180332.535000", "180333.513000", "180334.538000", "180335.519000", "180336.587000", "180337.558000", "180338.519000", "180339.561000", "180340.584000", "180341.558000", "180342.556000", "180343.588000", "180344.564000", "180345.554000", "180346.559000", "180347.583000", "180348.555000", "180349.530000", "180350.557000", "180351.523000", "180352.540000", "180353.530000", "180354.538000", "180355.590000", "180356.574000", "180357.518000", "180358.520000", "180359.563000", "180400.523000", "180401.594000", "180402.539000", "180403.535000", "180404.577000", "180405.534000", "180406.548000", "180407.545000", "180408.568000", "180409.527000", "180410.532000", "180411.544000", "180412.541000", "180413.539000", "180414.544000", "180415.540000", "180416.615000", "180417.554000", "180418.577000", "180419.553000", "180420.556000", "180421.559000", "180422.549000", "180423.552000", "180424.571000", "180425.577000", "180426.589000", "180427.554000", "180428.563000", "180429.575000", "180430.585000", "180431.545000", "180432.517000", "180433.523000", "180434.551000", "180435.551000", "180436.541000", "180437.574000", "180438.547000", "180439.549000", "180440.558000", "180441.532000", "180442.534000", "180443.552000", "180444.525000", "180445.551000", "180446.555000", "180447.511000", "180448.541000", "180449.559000", "180450.539000", "180451.523000", "180452.536000", "180453.538000", "180454.556000", "180455.550000", "180456.573000", "180457.559000", "180458.529000", "180459.543000", "180500.573000", "180501.570000", "180502.570000", "180503.558000", "180504.557000", "180505.552000", "180506.542000", "180507.541000", "180508.530000", "180509.554000", "180510.573000", "180511.551000", "180512.537000", "180513.525000", "180514.536000", "180515.550000", "180516.555000", "180517.514000", "180518.538000", "180519.518000", "180520.547000", "180521.541000", "180522.547000", "180523.546000", "180524.561000", "180525.585000", "180526.497000", "180527.544000", "180528.558000", "180529.522000", "180530.516000", "180531.523000", "180532.548000", "180533.532000", "180534.533000", "180535.526000", "180536.550000", "180537.536000", "180538.543000", "180539.539000", "180540.551000", "180541.524000", "180542.518000", "180543.533000", "180544.518000", "180545.543000", "180546.526000", "180547.545000", "180548.545000", "180549.529000", "180550.538000", "180551.528000", "180552.545000", "180553.526000", "180554.524000", "180555.546000", "180556.538000", "180557.551000", "180558.551000", "180559.589000", "180600.544000", "180601.549000", "180602.541000", "180603.524000", "180604.543000", "180605.544000", "180606.554000", "180607.561000", "180608.535000", "180609.566000", "180610.514000", "180611.529000", "180612.535000", "180613.553000", "180614.559000", "180615.606000", "180616.555000", "180617.544000", "180618.551000", "180619.526000", "180620.550000", "180621.532000", "180622.562000", "180623.571000", "180624.550000", "180625.548000", "180626.546000", "180627.541000", "180628.541000", "180629.539000", "180630.538000", "180631.548000", "180632.544000", "180633.540000", "180634.540000", "180635.554000", "180636.550000", "180637.538000", "180638.545000", "180639.555000", "180640.538000", "180641.567000", "180642.526000", "180643.571000", "180644.531000", "180645.586000", "180646.552000", "180647.557000", "180648.550000", "180649.526000", "180650.587000", "180651.516000", "180652.591000", "180653.571000", "180654.553000", "180655.548000", "180656.545000", "180657.565000", "180658.550000", "180659.565000", "180700.561000", "180701.529000", "180702.543000", "180703.535000", "180704.514000", "180705.520000", "180706.582000", "180707.525000", "180708.561000", "180709.540000", "180710.555000", "180711.544000", "180712.548000", "180713.548000", "180714.522000", "180715.542000", "180716.535000", "180717.542000", "180718.550000", "180719.525000", "180720.533000", "180721.546000", "180722.600000", "180723.545000", "180724.539000", "180725.522000", "180726.550000", "180727.536000", "180728.534000", "180729.564000", "180730.585000", "180731.528000", "180732.528000", "180733.549000", "180734.551000", "180735.573000", "180736.546000", "180737.529000", "180738.521000", "180739.560000", "180740.520000", "180741.582000", "180742.557000", "180743.514000", "180744.537000", "180745.531000", "180746.528000", "180747.525000", "180748.530000", "180749.532000", "180750.565000", "180751.543000", "180752.507000", "180753.528000", "180754.561000", "180755.541000", "180756.539000", "180757.549000", "180758.543000", "180759.531000", "180800.540000", "180801.545000", "180802.552000", "180803.532000", "180804.540000", "180805.548000", "180806.526000", "180807.539000", "180808.551000", "180809.532000", "180810.567000", "180811.553000", "180812.529000", "180813.547000", "180814.558000", "180815.566000", "180816.518000", "180817.531000", "180818.520000", "180819.553000", "180820.555000", "180821.547000", "180822.515000", "180823.538000", "180824.541000", "180825.539000", "180826.525000", "180827.549000", "180828.522000", "180829.532000", "180830.529000", "180831.538000", "180832.542000", "180833.526000", "180834.507000", "180835.563000", "180836.521000", "180837.521000", "180838.521000", "180839.516000", "180840.516000", "180841.529000", "180842.573000", "180843.547000", "180844.544000", "180845.527000", "180846.564000", "180847.536000", "180848.567000", "180849.574000", "180850.542000", "180851.544000", "180852.567000", "180853.539000", "180854.543000", "180855.540000", "180856.556000", "180857.543000", "180858.531000", "180859.528000", "180900.521000", "180901.528000", "180902.549000", "180903.547000", "180904.541000", "180905.588000"],
