{
  "AcquisitionMatrixPE": 96,
  "AcquisitionNumber": 1,
  "AcquisitionTime": "17:27:40.077500",
  "BandwidthPerPixelPhaseEncode": 18.939,
  "BaseResolution": 96,
  "BodyPartExamined": "BRAIN",
  "ConsistencyInfo": "N4_VE11C_LATEST_20160120",
  "ConversionSoftware": "dcm2niix",
  "ConversionSoftwareVersion": "v1.0.20190902",
  "DerivedVendorReportedEchoSpacing": 0.000550011,
  "DeviceSerialNumber": "66112",
  "DwellTime": 2.2e-06,
  "EchoTime": 0.033,
  "EchoTrainLength": 96,
  "EffectiveEchoSpacing": 0.000550011,
  "FlipAngle": 59,
  "ImageOrientationPatientDICOM": [0.999875, 0.0156172, -0.00241915, -0.0157073, 0.998938, -0.0433059],
  "ImageType": [
    "ORIGINAL",
    "PRIMARY",
    "FMRI",
    "NONE",
    "ND",
    "NORM",
    "MOSAIC"
],
  "ImagingFrequency": 123.252,
  "InPlanePhaseEncodingDirectionDICOM": "COL",
  "InstitutionAddress": "Maynard_3_Hanover_NH_US_03755",
  "InstitutionName": "Dartmouth_College_-_PBS",
  "InstitutionalDepartmentName": "Department",
  "MRAcquisitionType": "2D",
  "MagneticFieldStrength": 3,
  "Manufacturer": "Siemens",
  "ManufacturersModelName": "Prisma",
  "Modality": "MR",
  "MultibandAccelerationFactor": 4,
  "PartialFourier": 1,
  "PatientPosition": "HFS",
  "PercentPhaseFOV": 100,
  "PhaseEncodingDirection": "j-",
  "PhaseEncodingSteps": 96,
  "PhaseResolution": 1,
  "PixelBandwidth": 2365,
  "ProcedureStepDescription": "Gobbini_Matteo_1037_budapest",
  "ProtocolName": "func_run-01_task-movie",
  "PulseSequenceDetails": "%SiemensSeq%_ep2d_bold",
  "ReceiveCoilActiveElements": "HEA;HEP",
  "ReceiveCoilName": "Head_32",
  "ReconMatrixPE": 96,
  "RefLinesPE": 12,
  "RepetitionTime": 1,
  "SAR": 0.0481294,
  "ScanOptions": "FS",
  "ScanningSequence": "EP",
  "SequenceName": "_epfid2d1_96",
  "SequenceVariant": "SK",
  "SeriesDescription": "func_run-01_task-movie",
  "SeriesNumber": 8,
  "ShimSetting": [4133, -7706, -7320, 442, -45, 29, 2, 92],
  "SliceThickness": 2.5,
  "SliceTiming": [0.735, 0, 0.49, 0.0825, 0.5725, 0.165, 0.655, 0.3275, 0.8175, 0.41, 0.9, 0.245, 0.735, 0, 0.49, 0.0825, 0.5725, 0.165, 0.655, 0.3275, 0.8175, 0.41, 0.9, 0.245, 0.735, 0, 0.49, 0.0825, 0.5725, 0.165, 0.655, 0.3275, 0.8175, 0.41, 0.9, 0.245, 0.735, 0, 0.49, 0.0825, 0.5725, 0.165, 0.655, 0.3275, 0.8175, 0.41, 0.9, 0.245],
  "SoftwareVersions": "syngo_MR_E11",
  "SpacingBetweenSlices": 2.5,
  "StationName": "AWP66112",
  "TaskName": "movie",
  "TotalReadoutTime": 0.0522511,
  "TxRefAmp": 257.946,
  "dcmmeta_affine": [
    [-2.499687910079956, -0.03926827758550644, -0.004350660834461451, 124.35991668701172],
    [-0.039042916148900986, 2.4973459243774414, -0.10834610462188721, -105.15505981445312],
    [-0.0060478681698441505, 0.10826462507247925, 2.497647285461426, -97.12120056152344],
    [0.0, 0.0, 0.0, 1.0]
],
  "dcmmeta_reorient_transform": [
    [0.0, -1.0, 0.0, 95.0],
    [1.0, 0.0, 0.0, 0.0],
    [0.0, 0.0, 1.0, 0.0],
    [0.0, 0.0, 0.0, 1.0]
],
  "dcmmeta_shape": [96, 96, 48, 598],
  "dcmmeta_slice_dim": 2,
  "dcmmeta_version": 0.6,
  "global": {
    "const": {
      "AccessionNumber": "A001441",
      "AcquisitionMatrix": [96, 0, 0, 96],
      "AngioFlag": "N",
      "BitsAllocated": 16,
      "BitsStored": 12,
      "BodyPartExamined": "BRAIN",
      "Columns": 672,
      "EchoNumbers": 1,
      "EchoTime": 33.0,
      "EchoTrainLength": 96,
      "FlipAngle": 59.0,
      "HighBit": 11,
      "ImageOrientationPatient": [0.99987511813121, 0.01561716582648, -0.0024191472999, -0.015707311095, 0.99893837831083, -0.0433058508275],
      "ImagePositionPatient": [-829.23025454702, -862.57279316848, -53.914060655089],
      "ImageType": [
        "ORIGINAL",
        "PRIMARY",
        "FMRI",
        "NONE",
        "ND",
        "NORM",
        "MOSAIC"
],
      "ImagedNucleus": "1H",
      "ImagingFrequency": 123.252306,
      "InPlanePhaseEncodingDirection": "COL",
      "MRAcquisitionType": "2D",
      "MagneticFieldStrength": 3.0,
      "Manufacturer": "SIEMENS",
      "ManufacturerModelName": "Prisma",
      "Modality": "MR",
      "NumberOfAverages": 1.0,
      "NumberOfPhaseEncodingSteps": 96,
      "PercentPhaseFieldOfView": 100.0,
      "PercentSampling": 100.0,
      "PerformedProcedureStepStartTime": "170538.148000",
      "PhotometricInterpretation": "MONOCHROME2",
      "PixelBandwidth": 2365.0,
      "PixelRepresentation": 0,
      "PixelSpacing": [2.5, 2.5],
      "ProtocolName": "func_run-01_task-movie",
      "RepetitionTime": 1000.0,
      "Rows": 672,
      "SAR": 0.04812937562356,
      "SamplesPerPixel": 1,
      "ScanOptions": "FS",
      "ScanningSequence": "EP",
      "SequenceName": "*epfid2d1_96",
      "SequenceVariant": "SK",
      "SeriesDescription": "func_run-01_task-movie",
      "SeriesNumber": 8,
      "SeriesTime": "172741.732000",
      "SliceLocation": -92.688963923949,
      "SliceThickness": 2.5,
      "SmallestImagePixelValue": 0,
      "SoftwareVersions": "syngo MR E11",
      "SpacingBetweenSlices": 2.4999999737864,
      "SpecificCharacterSet": "ISO_IR 100",
      "StudyID": "1",
      "StudyTime": "170538.063000",
      "TransmitCoilName": "Body",
      "VariableFlipAngleFlag": "N",
      "WindowCenterWidthExplanation": "Algo1",
      "dBdt": 0.0},
    "slices": {}
  },
  "time": {
    "samples": {
      "AcquisitionNumber": [1, 2, 3, 4, 5, 6, 7, 8, 9, 10, 11, 12, 13, 14, 15, 16, 17, 18, 19, 20, 21, 22, 23, 24, 25, 26, 27, 28, 29, 30, 31, 32, 33, 34, 35, 36, 37, 38, 39, 40, 41, 42, 43, 44, 45, 46, 47, 48, 49, 50, 51, 52, 53, 54, 55, 56, 57, 58, 59, 60, 61, 62, 63, 64, 65, 66, 67, 68, 69, 70, 71, 72, 73, 74, 75, 76, 77, 78, 79, 80, 81, 82, 83, 84, 85, 86, 87, 88, 89, 90, 91, 92, 93, 94, 95, 96, 97, 98, 99, 100, 101, 102, 103, 104, 105, 106, 107, 108, 109, 110, 111, 112, 113, 114, 115, 116, 117, 118, 119, 120, 121, 122, 123, 124, 125, 126, 127, 128, 129, 130, 131, 132, 133, 134, 135, 136, 137, 138, 139, 140, 141, 142, 143, 144, 145, 146, 147, 148, 149, 150, 151, 152, 153, 154, 155, 156, 157, 158, 159, 160, 161, 162, 163, 164, 165, 166, 167, 168, 169, 170, 171, 172, 173, 174, 175, 176, 177, 178, 179, 180, 181, 182, 183, 184, 185, 186, 187, 188, 189, 190, 191, 192, 193, 194, 195, 196, 197, 198, 199, 200, 201, 202, 203, 204, 205, 206, 207, 208, 209, 210, 211, 212, 213, 214, 215, 216, 217, 218, 219, 220, 221, 222, 223, 224, 225, 226, 227, 228, 229, 230, 231, 232, 233, 234, 235, 236, 237, 238, 239, 240, 241, 242, 243, 244, 245, 246, 247, 248, 249, 250, 251, 252, 253, 254, 255, 256, 257, 258, 259, 260, 261, 262, 263, 264, 265, 266, 267, 268, 269, 270, 271, 272, 273, 274, 275, 276, 277, 278, 279, 280, 281, 282, 283, 284, 285, 286, 287, 288, 289, 290, 291, 292, 293, 294, 295, 296, 297, 298, 299, 300, 301, 302, 303, 304, 305, 306, 307, 308, 309, 310, 311, 312, 313, 314, 315, 316, 317, 318, 319, 320, 321, 322, 323, 324, 325, 326, 327, 328, 329, 330, 331, 332, 333, 334, 335, 336, 337, 338, 339, 340, 341, 342, 343, 344, 345, 346, 347, 348, 349, 350, 351, 352, 353, 354, 355, 356, 357, 358, 359, 360, 361, 362, 363, 364, 365, 366, 367, 368, 369, 370, 371, 372, 373, 374, 375, 376, 377, 378, 379, 380, 381, 382, 383, 384, 385, 386, 387, 388, 389, 390, 391, 392, 393, 394, 395, 396, 397, 398, 399, 400, 401, 402, 403, 404, 405, 406, 407, 408, 409, 410, 411, 412, 413, 414, 415, 416, 417, 418, 419, 420, 421, 422, 423, 424, 425, 426, 427, 428, 429, 430, 431, 432, 433, 434, 435, 436, 437, 438, 439, 440, 441, 442, 443, 444, 445, 446, 447, 448, 449, 450, 451, 452, 453, 454, 455, 456, 457, 458, 459, 460, 461, 462, 463, 464, 465, 466, 467, 468, 469, 470, 471, 472, 473, 474, 475, 476, 477, 478, 479, 480, 481, 482, 483, 484, 485, 486, 487, 488, 489, 490, 491, 492, 493, 494, 495, 496, 497, 498, 499, 500, 501, 502, 503, 504, 505, 506, 507, 508, 509, 510, 511, 512, 513, 514, 515, 516, 517, 518, 519, 520, 521, 522, 523, 524, 525, 526, 527, 528, 529, 530, 531, 532, 533, 534, 535, 536, 537, 538, 539, 540, 541, 542, 543, 544, 545, 546, 547, 548, 549, 550, 551, 552, 553, 554, 555, 556, 557, 558, 559, 560, 561, 562, 563, 564, 565, 566, 567, 568, 569, 570, 571, 572, 573, 574, 575, 576, 577, 578, 579, 580, 581, 582, 583, 584, 585, 586, 587, 588, 589, 590, 591, 592, 593, 594, 595, 596, 597, 598],
      "AcquisitionTime": ["172740.077500", "172741.077500", "172742.077500", "172743.077500", "172744.077500", "172745.077500", "172746.077500", "172747.077500", "172748.077500", "172749.077500", "172750.077500", "172751.077500", "172752.077500", "172753.077500", "172754.077500", "172755.077500", "172756.077500", "172757.077500", "172758.077500", "172759.077500", "172800.077500", "172801.077500", "172802.077500", "172803.077500", "172804.077500", "172805.077500", "172806.077500", "172807.077500", "172808.077500", "172809.077500", "172810.077500", "172811.077500", "172812.077500", "172813.077500", "172814.077500", "172815.077500", "172816.077500", "172817.077500", "172818.077500", "172819.077500", "172820.077500", "172821.077500", "172822.077500", "172823.077500", "172824.077500", "172825.077500", "172826.077500", "172827.077500", "172828.077500", "172829.077500", "172830.077500", "172831.077500", "172832.077500", "172833.077500", "172834.077500", "172835.077500", "172836.077500", "172837.077500", "172838.077500", "172839.077500", "172840.077500", "172841.077500", "172842.077500", "172843.077500", "172844.077500", "172845.077500", "172846.077500", "172847.077500", "172848.077500", "172849.077500", "172850.077500", "172851.077500", "172852.077500", "172853.077500", "172854.077500", "172855.077500", "172856.077500", "172857.077500", "172858.077500", "172859.077500", "172900.077500", "172901.077500", "172902.077500", "172903.077500", "172904.077500", "172905.077500", "172906.077500", "172907.077500", "172908.077500", "172909.077500", "172910.077500", "172911.077500", "172912.077500", "172913.077500", "172914.077500", "172915.077500", "172916.077500", "172917.077500", "172918.077500", "172919.077500", "172920.077500", "172921.077500", "172922.077500", "172923.077500", "172924.077500", "172925.077500", "172926.077500", "172927.077500", "172928.077500", "172929.077500", "172930.077500", "172931.077500", "172932.077500", "172933.077500", "172934.077500", "172935.077500", "172936.077500", "172937.077500", "172938.077500", "172939.077500", "172940.077500", "172941.077500", "172942.077500", "172943.077500", "172944.077500", "172945.077500", "172946.077500", "172947.077500", "172948.077500", "172949.077500", "172950.077500", "172951.077500", "172952.077500", "172953.077500", "172954.077500", "172955.077500", "172956.077500", "172957.077500", "172958.077500", "172959.077500", "173000.077500", "173001.077500", "173002.077500", "173003.077500", "173004.077500", "173005.077500", "173006.077500", "173007.077500", "173008.077500", "173009.077500", "173010.077500", "173011.077500", "173012.077500", "173013.077500", "173014.077500", "173015.077500", "173016.077500", "173017.077500", "173018.077500", "173019.077500", "173020.077500", "173021.077500", "173022.077500", "173023.077500", "173024.077500", "173025.077500", "173026.077500", "173027.077500", "173028.077500", "173029.077500", "173030.077500", "173031.077500", "173032.077500", "173033.077500", "173034.077500", "173035.077500", "173036.077500", "173037.077500", "173038.077500", "173039.077500", "173040.077500", "173041.077500", "173042.077500", "173043.077500", "173044.077500", "173045.077500", "173046.077500", "173047.077500", "173048.077500", "173049.077500", "173050.077500", "173051.077500", "173052.077500", "173053.077500", "173054.077500", "173055.077500", "173056.077500", "173057.077500", "173058.077500", "173059.077500", "173100.077500", "173101.077500", "173102.077500", "173103.077500", "173104.077500", "173105.077500", "173106.077500", "173107.077500", "173108.077500", "173109.077500", "173110.077500", "173111.077500", "173112.077500", "173113.077500", "173114.077500", "173115.077500", "173116.077500", "173117.077500", "173118.077500", "173119.077500", "173120.077500", "173121.077500", "173122.077500", "173123.077500", "173124.077500", "173125.077500", "173126.077500", "173127.077500", "173128.077500", "173129.077500", "173130.077500", "173131.077500", "173132.077500", "173133.077500", "173134.077500", "173135.077500", "173136.077500", "173137.077500", "173138.077500", "173139.077500", "173140.077500", "173141.077500", "173142.077500", "173143.077500", "173144.077500", "173145.077500", "173146.077500", "173147.077500", "173148.077500", "173149.077500", "173150.077500", "173151.077500", "173152.077500", "173153.077500", "173154.077500", "173155.077500", "173156.077500", "173157.077500", "173158.077500", "173159.077500", "173200.077500", "173201.077500", "173202.077500", "173203.077500", "173204.077500", "173205.077500", "173206.077500", "173207.077500", "173208.077500", "173209.077500", "173210.077500", "173211.077500", "173212.077500", "173213.077500", "173214.077500", "173215.077500", "173216.077500", "173217.077500", "173218.077500", "173219.077500", "173220.077500", "173221.077500", "173222.077500", "173223.077500", "173224.077500", "173225.077500", "173226.077500", "173227.077500", "173228.077500", "173229.077500", "173230.077500", "173231.077500", "173232.077500", "173233.077500", "173234.077500", "173235.077500", "173236.077500", "173237.077500", "173238.077500", "173239.077500", "173240.077500", "173241.077500", "173242.077500", "173243.077500", "173244.077500", "173245.077500", "173246.077500", "173247.077500", "173248.077500", "173249.077500", "173250.077500", "173251.077500", "173252.077500", "173253.077500", "173254.077500", "173255.077500", "173256.077500", "173257.077500", "173258.077500", "173259.077500", "173300.077500", "173301.077500", "173302.077500", "173303.077500", "173304.077500", "173305.077500", "173306.077500", "173307.077500", "173308.077500", "173309.077500", "173310.077500", "173311.077500", "173312.077500", "173313.077500", "173314.077500", "173315.077500", "173316.077500", "173317.077500", "173318.077500", "173319.077500", "173320.077500", "173321.077500", "173322.077500", "173323.077500", "173324.077500", "173325.077500", "173326.077500", "173327.077500", "173328.077500", "173329.077500", "173330.077500", "173331.077500", "173332.077500", "173333.077500", "173334.077500", "173335.077500", "173336.077500", "173337.077500", "173338.077500", "173339.077500", "173340.077500", "173341.077500", "173342.077500", "173343.077500", "173344.077500", "173345.077500", "173346.077500", "173347.077500", "173348.077500", "173349.077500", "173350.077500", "173351.077500", "173352.077500", "173353.077500", "173354.077500", "173355.077500", "173356.077500", "173357.077500", "173358.077500", "173359.077500", "173400.077500", "173401.077500", "173402.077500", "173403.077500", "173404.077500", "173405.077500", "173406.077500", "173407.077500", "173408.077500", "173409.077500", "173410.077500", "173411.077500", "173412.077500", "173413.077500", "173414.077500", "173415.077500", "173416.077500", "173417.077500", "173418.077500", "173419.077500", "173420.077500", "173421.077500", "173422.077500", "173423.077500", "173424.077500", "173425.077500", "173426.077500", "173427.077500", "173428.077500", "173429.077500", "173430.077500", "173431.077500", "173432.077500", "173433.077500", "173434.077500", "173435.077500", "173436.077500", "173437.077500", "173438.077500", "173439.077500", "173440.077500", "173441.077500", "173442.077500", "173443.077500", "173444.077500", "173445.077500", "173446.077500", "173447.077500", "173448.077500", "173449.077500", "173450.077500", "173451.077500", "173452.077500", "173453.077500", "173454.077500", "173455.077500", "173456.077500", "173457.077500", "173458.077500", "173459.077500", "173500.077500", "173501.077500", "173502.077500", "173503.077500", "173504.077500", "173505.077500", "173506.077500", "173507.077500", "173508.077500", "173509.077500", "173510.077500", "173511.077500", "173512.077500", "173513.077500", "173514.077500", "173515.077500", "173516.077500", "173517.077500", "173518.077500", "173519.077500", "173520.077500", "173521.077500", "173522.077500", "173523.077500", "173524.077500", "173525.077500", "173526.077500", "173527.077500", "173528.077500", "173529.077500", "173530.077500", "173531.077500", "173532.077500", "173533.077500", "173534.077500", "173535.077500", "173536.077500", "173537.077500", "173538.077500", "173539.077500", "173540.077500", "173541.077500", "173542.077500", "173543.077500", "173544.077500", "173545.077500", "173546.077500", "173547.077500", "173548.077500", "173549.077500", "173550.077500", "173551.077500", "173552.077500", "173553.077500", "173554.077500", "173555.077500", "173556.077500", "173557.077500", "173558.077500", "173559.077500", "173600.077500", "173601.077500", "173602.077500", "173603.077500", "173604.077500", "173605.077500", "173606.077500", "173607.077500", "173608.077500", "173609.077500", "173610.077500", "173611.077500", "173612.077500", "173613.077500", "173614.077500", "173615.077500", "173616.077500", "173617.077500", "173618.077500", "173619.077500", "173620.077500", "173621.077500", "173622.077500", "173623.077500", "173624.077500", "173625.077500", "173626.077500", "173627.077500", "173628.077500", "173629.077500", "173630.077500", "173631.077500", "173632.077500", "173633.077500", "173634.077500", "173635.077500", "173636.077500", "173637.077500", "173638.077500", "173639.077500", "173640.077500", "173641.077500", "173642.077500", "173643.077500", "173644.077500", "173645.077500", "173646.077500", "173647.077500", "173648.077500", "173649.077500", "173650.077500", "173651.077500", "173652.077500", "173653.077500", "173654.077500", "173655.077500", "173656.077500", "173657.077500", "173658.077500", "173659.077500", "173700.077500", "173701.077500", "173702.077500", "173703.077500", "173704.077500", "173705.077500", "173706.077500", "173707.077500", "173708.077500", "173709.077500", "173710.077500", "173711.077500", "173712.077500", "173713.077500", "173714.077500", "173715.077500", "173716.077500", "173717.077500", "173718.077500", "173719.077500", "173720.077500", "173721.077500", "173722.077500", "173723.077500", "173724.077500", "173725.077500", "173726.077500", "173727.077500", "173728.077500", "173729.077500", "173730.077500", "173731.077500", "173732.077500", "173733.077500", "173734.077500", "173735.077500", "173736.077500", "173737.077500"],
      "ContentTime": ["172741.736000", "172742.631000", "172743.626000", "172744.616000", "172745.615000", "172746.620000", "172747.623000", "172748.613000", "172749.617000", "172750.626000", "172751.593000", "172752.608000", "172753.623000", "172754.596000", "172755.601000", "172756.590000", "172757.600000", "172758.623000", "172759.613000", "172800.613000", "172801.621000", "172802.621000", "172803.647000", "172804.623000", "172805.611000", "172806.617000", "172807.624000", "172808.598000", "172809.603000", "172810.626000", "172811.618000", "172812.618000", "172813.604000", "172814.612000", "172815.646000", "172816.601000", "172817.629000", "172818.595000", "172819.611000", "172820.601000", "172821.591000", "172822.592000", "172823.601000", "172824.621000", "172825.601000", "172826.610000", "172827.643000", "172828.644000", "172829.625000", "172830.612000", "172831.600000", "172832.621000", "172833.622000", "172834.615000", "172835.612000", "172836.634000", "172837.636000", "172838.601000", "172839.634000", "172840.649000", "172841.623000", "172842.605000", "172843.615000", "172844.628000", "172845.613000", "172846.618000", "172847.608000", "172848.626000", "172849.596000", "172850.622000", "172851.617000", "172852.616000", "172853.641000", "172854.620000", "172855.602000", "172856.613000", "172857.622000", "172858.616000", "172859.632000", "172900.618000", "172901.617000", "172902.627000", "172903.625000", "172904.645000", "172905.638000", "172906.629000", "172907.640000", "172908.605000", "172909.609000", "172910.612000", "172911.613000", "172912.603000", "172913.622000", "172914.573000", "172915.649000", "172916.615000", "172917.658000", "172918.608000", "172919.611000", "172920.624000", "172921.670000", "172922.603000", "172923.612000", "172924.627000", "172925.606000", "172926.614000", "172927.609000", "172928.632000", "172929.637000", "172930.623000", "172931.628000", "172932.656000", "172933.604000", "172934.613000", "172935.642000", "172936.615000", "172937.590000", "172938.630000", "172939.613000", "172940.587000", "172941.606000", "172942.625000", "172943.669000", "172944.649000", "172945.619000", "172946.622000", "172947.643000", "172948.593000", "172949.608000", "172950.622000", "172951.661000", "172952.650000", "172953.682000", "172954.637000", "172955.650000", "172956.621000", "172957.623000", "172958.628000", "172959.611000", "173000.628000", "173001.630000", "173002.612000", "173003.640000", "173004.646000", "173005.642000", "173006.630000", "173007.612000", "173008.622000", "173009.640000", "173010.647000", "173011.650000", "173012.605000", "173013.623000", "173014.625000", "173015.623000", "173016.607000", "173017.627000", "173018.589000", "173019.618000", "173020.605000", "173021.617000", "173022.603000", "173023.611000", "173024.635000", "173025.602000", "173026.621000", "173027.685000", "173028.613000", "173029.603000", "173030.626000", "173031.617000", "173032.634000", "173033.629000", "173034.619000", "173035.607000", "173036.603000", "173037.600000", "173038.609000", "173039.626000", "173040.618000", "173041.615000", "173042.628000", "173043.682000", "173044.623000", "173045.606000", "173046.635000", "173047.630000", "173048.626000", "173049.608000", "173050.627000", "173051.622000", "173052.601000", "173053.608000", "173054.633000", "173055.628000", "173056.642000", "173057.612000", "173058.635000", "173059.619000", "173100.610000", "173101.633000", "173102.646000", "173103.616000", "173104.636000", "173105.600000", "173106.614000", "173107.659000", "173108.644000", "173109.622000", "173110.623000", "173111.608000", "173112.617000", "173113.614000", "173114.616000", "173115.612000", "173116.593000", "173117.634000", "173118.617000", "173119.635000", "173120.637000", "173121.613000", "173122.636000", "173123.612000", "173124.639000", "173125.612000", "173126.618000", "173127.622000", "173128.584000", "173129.609000", "173130.594000", "173131.629000", "173132.690000", "173133.613000", "173134.612000", "173135.610000", "173136.626000", "173137.613000", "173138.624000", "173139.630000", "173140.627000", "173141.596000", "173142.606000", "173143.631000", "173144.623000", "173145.617000", "173146.605000", "173147.619000", "173148.614000", "173149.638000", "173150.618000", "173151.666000", "173152.638000", "173153.637000", "173154.615000", "173155.627000", "173156.616000", "173157.608000", "173158.637000", "173159.628000", "173200.674000", "173201.637000", "173202.617000", "173203.618000", "173204.649000", "173205.597000", "173206.617000", "173207.657000", "173208.634000", "173209.621000", "173210.609000", "173211.657000", "173212.660000", "173213.649000", "173214.621000", "173215.607000", "173216.642000", "173217.641000", "173218.600000", "173219.619000", "173220.607000", "173221.621000", "173222.623000", "173223.616000", "173224.606000", "173225.652000", "173226.593000", "173227.629000", "173228.661000", "173229.631000", "173230.652000", "173231.650000", "173232.626000", "173233.741000", "173234.612000", "173235.607000", "173236.635000", "173237.650000", "173238.619000", "173239.623000", "173240.601000", "173241.611000", "173242.625000", "173243.632000", "173244.635000", "173245.614000", "173246.636000", "173247.609000", "173248.645000", "173249.621000", "173250.658000", "173251.656000", "173252.656000", "173253.618000", "173254.612000", "173255.637000", "173256.647000", "173257.592000", "173258.601000", "173259.685000", "173300.644000", "173301.634000", "173302.675000", "173303.653000", "173304.611000", "173305.624000", "173306.615000", "173307.620000", "173308.611000", "173309.605000", "173310.622000", "173311.643000", "173312.652000", "173313.626000", "173314.619000", "173315.615000", "173316.626000", "173317.605000", "173318.626000", "173319.620000", "173320.599000", "173321.618000", "173322.618000", "173323.611000", "173324.614000", "173325.611000", "173326.597000", "173327.614000", "173328.658000", "173329.600000", "173330.631000", "173331.652000", "173332.626000", "173333.613000", "173334.603000", "173335.610000", "173336.613000", "173337.618000", "173338.624000", "173339.606000", "173340.628000", "173341.620000", "173342.623000", "173343.600000", "173344.648000", "173345.617000", "173346.591000", "173347.662000", "173348.637000", "173349.627000", "173350.614000", "173351.652000", "173352.622000", "173353.607000", "173354.621000", "173355.617000", "173356.607000", "173357.628000", "173358.612000", "173359.609000", "173400.624000", "173401.609000", "173402.584000", "173403.625000", "173404.591000", "173405.611000", "173406.606000", "173407.627000", "173408.607000", "173409.647000", "173410.627000", "173411.618000", "173412.617000", "173413.620000", "173414.601000", "173415.603000", "173416.661000", "173417.612000", "173418.646000", "173419.616000", "173420.609000", "173421.641000", "173422.633000", "173423.641000", "173424.639000", "173425.596000", "173426.616000", "173427.617000", "173428.625000", "173429.618000", "173430.605000", "173431.600000", "173432.593000", "173433.639000", "173434.607000", "173435.630000", "173436.645000", "173437.622000", "173438.609000", "173439.626000", "173440.614000", "173441.611000", "173442.662000", "173443.606000", "173444.609000", "173445.617000", "173446.645000", "173447.610000", "173448.621000", "173449.620000", "173450.601000", "173451.645000", "173452.632000", "173453.616000", "173454.618000", "173455.651000", "173456.640000", "173457.617000", "173458.723000", "173459.633000", "173500.609000", "173501.603000", "173502.647000", "173503.638000", "173504.602000", "173505.615000", "173506.603000", "173507.617000", "173508.607000", "173509.599000", "173510.617000", "173511.632000", "173512.623000", "173513.604000", "173514.618000", "173515.606000", "173516.604000", "173517.626000", "173518.619000", "173519.613000", "173520.639000", "173521.652000", "173522.613000", "173523.613000", "173524.600000", "173525.623000", "173526.614000", "173527.617000", "173528.631000", "173529.656000", "173530.629000", "173531.613000", "173532.602000", "173533.598000", "173534.622000", "173535.637000", "173536.617000", "173537.614000", "173538.586000", "173539.619000", "173540.629000", "173541.623000", "173542.606000", "173543.629000", "173544.597000", "173545.623000", "173546.607000", "173547.676000", "173548.613000", "173549.611000", "173550.637000", "173551.635000", "173552.613000", "173553.602000", "173554.636000", "173555.619000", "173556.617000", "173557.616000", "173558.638000", "173559.604000", "173600.613000", "173601.644000", "173602.691000", "173603.595000", "173604.602000", "173605.580000", "173606.610000", "173607.616000", "173608.602000", "173609.608000", "173610.644000", "173611.607000", "173612.601000", "173613.625000", "173614.612000", "173615.670000", "173616.619000", "173617.609000", "173618.633000", "173619.602000", "173620.627000", "173621.605000", "173622.604000", "173623.616000", "173624.615000", "173625.611000", "173626.621000", "173627.589000", "173628.611000", "173629.622000", "173630.604000", "173631.610000", "173632.638000", "173633.608000", "173634.608000", "173635.608000", "173636.652000", "173637.618000", "173638.611000", "173639.633000", "173640.605000", "173641.637000", "173642.636000", "173643.623000", "173644.649000", "173645.611000", "173646.615000", "173647.602000", "173648.600000", "173649.663000", "173650.620000", "173651.595000", "173652.599000", "173653.585000", "173654.622000", "173655.650000", "173656.623000", "173657.643000", "173658.619000", "173659.608000", "173700.594000", "173701.598000", "173702.644000", "173703.651000", "173704.588000", "173705.594000", "173706.637000", "173707.604000", "173708.616000", "173709.592000", "173710.605000", "173711.599000", "173712.607000", "173713.598000", "173714.623000", "173715.604000", "173716.613000", "173717.663000", "173718.616000", "173719.612000", "173720.605000", "173721.610000", "173722.613000", "173723.597000", "173724.605000", "173725.615000", "173726.592000", "173727.595000", "173728.619000", "173729.613000", "173730.619000", "173731.611000", "173732.629000", "173733.624000", "173734.609000", "173735.655000", "173736.600000", "173737.648000", "173738.640000"],
