{
  "AcquisitionMatrixPE": 96,
  "AcquisitionNumber": 1,
  "AcquisitionTime": "17:40:8.210000",
  "BandwidthPerPixelPhaseEncode": 18.939,
  "BaseResolution": 96,
  "BodyPartExamined": "BRAIN",
  "ConsistencyInfo": "N4_VE11C_LATEST_20160120",
  "ConversionSoftware": "dcm2niix",
  "ConversionSoftwareVersion": "v1.0.20190902",
  "DerivedVendorReportedEchoSpacing": 0.000550011,
  "DeviceSerialNumber": "66112",
  "DwellTime": 2.2e-06,
  "EchoTime": 0.033,
  "EchoTrainLength": 96,
  "EffectiveEchoSpacing": 0.000550011,
  "FlipAngle": 59,
  "ImageOrientationPatientDICOM": [0.999875, 0.0156172, -0.00241915, -0.0157073, 0.998938, -0.0433059],
  "ImageType": [
    "ORIGINAL",
    "PRIMARY",
    "FMRI",
    "NONE",
    "ND",
    "NORM",
    "MOSAIC"
],
  "ImagingFrequency": 123.252,
  "InPlanePhaseEncodingDirectionDICOM": "COL",
  "InstitutionAddress": "Maynard_3_Hanover_NH_US_03755",
  "InstitutionName": "Dartmouth_College_-_PBS",
  "InstitutionalDepartmentName": "Department",
  "MRAcquisitionType": "2D",
  "MagneticFieldStrength": 3,
  "Manufacturer": "Siemens",
  "ManufacturersModelName": "Prisma",
  "Modality": "MR",
  "MultibandAccelerationFactor": 4,
  "PartialFourier": 1,
  "PatientPosition": "HFS",
  "PercentPhaseFOV": 100,
  "PhaseEncodingDirection": "j-",
  "PhaseEncodingSteps": 96,
  "PhaseResolution": 1,
  "PixelBandwidth": 2365,
  "ProcedureStepDescription": "Gobbini_Matteo_1037_budapest",
  "ProtocolName": "func_run-02_task-movie",
  "PulseSequenceDetails": "%SiemensSeq%_ep2d_bold",
  "ReceiveCoilActiveElements": "HEA;HEP",
  "ReceiveCoilName": "Head_32",
  "ReconMatrixPE": 96,
  "RefLinesPE": 12,
  "RepetitionTime": 1,
  "SAR": 0.0480773,
  "ScanOptions": "FS",
  "ScanningSequence": "EP",
  "SequenceName": "_epfid2d1_96",
  "SequenceVariant": "SK",
  "SeriesDescription": "func_run-02_task-movie",
  "SeriesNumber": 15,
  "ShimSetting": [4133, -7706, -7320, 442, -45, 29, 2, 92],
  "SliceThickness": 2.5,
  "SliceTiming": [0.735, 0, 0.49, 0.0825, 0.5725, 0.1625, 0.6525, 0.3275, 0.8175, 0.4075, 0.8975, 0.245, 0.735, 0, 0.49, 0.0825, 0.5725, 0.1625, 0.6525, 0.3275, 0.8175, 0.4075, 0.8975, 0.245, 0.735, 0, 0.49, 0.0825, 0.5725, 0.1625, 0.6525, 0.3275, 0.8175, 0.4075, 0.8975, 0.245, 0.735, 0, 0.49, 0.0825, 0.5725, 0.1625, 0.6525, 0.3275, 0.8175, 0.4075, 0.8975, 0.245],
  "SoftwareVersions": "syngo_MR_E11",
  "SpacingBetweenSlices": 2.5,
  "StationName": "AWP66112",
  "TaskName": "movie",
  "TotalReadoutTime": 0.0522511,
  "TxRefAmp": 257.946,
  "dcmmeta_affine": [
    [-2.499687910079956, -0.03926827758550644, -0.004350660834461451, 124.35991668701172],
    [-0.039042916148900986, 2.4973459243774414, -0.10834610462188721, -105.15505981445312],
    [-0.0060478681698441505, 0.10826462507247925, 2.497647285461426, -97.12120056152344],
    [0.0, 0.0, 0.0, 1.0]
],
  "dcmmeta_reorient_transform": [
    [0.0, -1.0, 0.0, 95.0],
    [1.0, 0.0, 0.0, 0.0],
    [0.0, 0.0, 1.0, 0.0],
    [0.0, 0.0, 0.0, 1.0]
],
  "dcmmeta_shape": [96, 96, 48, 498],
  "dcmmeta_slice_dim": 2,
  "dcmmeta_version": 0.6,
  "global": {
    "const": {
      "AccessionNumber": "A001441",
      "AcquisitionMatrix": [96, 0, 0, 96],
      "AngioFlag": "N",
      "BitsAllocated": 16,
      "BitsStored": 12,
      "BodyPartExamined": "BRAIN",
      "Columns": 672,
      "EchoNumbers": 1,
      "EchoTime": 33.0,
      "EchoTrainLength": 96,
      "FlipAngle": 59.0,
      "HighBit": 11,
      "ImageOrientationPatient": [0.99987511813121, 0.01561716582648, -0.0024191472999, -0.015707311095, 0.99893837831083, -0.0433058508275],
      "ImagePositionPatient": [-829.23025454702, -862.57279316848, -53.914060655089],
      "ImageType": [
        "ORIGINAL",
        "PRIMARY",
        "FMRI",
        "NONE",
        "ND",
        "NORM",
        "MOSAIC"
],
      "ImagedNucleus": "1H",
      "ImagingFrequency": 123.252313,
      "InPlanePhaseEncodingDirection": "COL",
      "MRAcquisitionType": "2D",
      "MagneticFieldStrength": 3.0,
      "Manufacturer": "SIEMENS",
      "ManufacturerModelName": "Prisma",
      "Modality": "MR",
      "NumberOfAverages": 1.0,
      "NumberOfPhaseEncodingSteps": 96,
      "PercentPhaseFieldOfView": 100.0,
      "PercentSampling": 100.0,
      "PerformedProcedureStepStartTime": "170538.148000",
      "PhotometricInterpretation": "MONOCHROME2",
      "PixelBandwidth": 2365.0,
      "PixelRepresentation": 0,
      "PixelSpacing": [2.5, 2.5],
      "ProtocolName": "func_run-02_task-movie",
      "RepetitionTime": 1000.0,
      "Rows": 672,
      "SAR": 0.04807731767745,
      "SamplesPerPixel": 1,
      "ScanOptions": "FS",
      "ScanningSequence": "EP",
      "SequenceName": "*epfid2d1_96",
      "SequenceVariant": "SK",
      "SeriesDescription": "func_run-02_task-movie",
      "SeriesNumber": 15,
      "SeriesTime": "174009.627000",
      "SliceLocation": -92.688963923949,
      "SliceThickness": 2.5,
      "SmallestImagePixelValue": 0,
      "SoftwareVersions": "syngo MR E11",
      "SpacingBetweenSlices": 2.4999999737864,
      "SpecificCharacterSet": "ISO_IR 100",
      "StudyID": "1",
      "StudyTime": "170538.063000",
      "TransmitCoilName": "Body",
      "VariableFlipAngleFlag": "N",
      "WindowCenterWidthExplanation": "Algo1",
      "dBdt": 0.0},
    "slices": {}
  },
  "time": {
    "samples": {
      "AcquisitionNumber": [1, 2, 3, 4, 5, 6, 7, 8, 9, 10, 11, 12, 13, 14, 15, 16, 17, 18, 19, 20, 21, 22, 23, 24, 25, 26, 27, 28, 29, 30, 31, 32, 33, 34, 35, 36, 37, 38, 39, 40, 41, 42, 43, 44, 45, 46, 47, 48, 49, 50, 51, 52, 53, 54, 55, 56, 57, 58, 59, 60, 61, 62, 63, 64, 65, 66, 67, 68, 69, 70, 71, 72, 73, 74, 75, 76, 77, 78, 79, 80, 81, 82, 83, 84, 85, 86, 87, 88, 89, 90, 91, 92, 93, 94, 95, 96, 97, 98, 99, 100, 101, 102, 103, 104, 105, 106, 107, 108, 109, 110, 111, 112, 113, 114, 115, 116, 117, 118, 119, 120, 121, 122, 123, 124, 125, 126, 127, 128, 129, 130, 131, 132, 133, 134, 135, 136, 137, 138, 139, 140, 141, 142, 143, 144, 145, 146, 147, 148, 149, 150, 151, 152, 153, 154, 155, 156, 157, 158, 159, 160, 161, 162, 163, 164, 165, 166, 167, 168, 169, 170, 171, 172, 173, 174, 175, 176, 177, 178, 179, 180, 181, 182, 183, 184, 185, 186, 187, 188, 189, 190, 191, 192, 193, 194, 195, 196, 197, 198, 199, 200, 201, 202, 203, 204, 205, 206, 207, 208, 209, 210, 211, 212, 213, 214, 215, 216, 217, 218, 219, 220, 221, 222, 223, 224, 225, 226, 227, 228, 229, 230, 231, 232, 233, 234, 235, 236, 237, 238, 239, 240, 241, 242, 243, 244, 245, 246, 247, 248, 249, 250, 251, 252, 253, 254, 255, 256, 257, 258, 259, 260, 261, 262, 263, 264, 265, 266, 267, 268, 269, 270, 271, 272, 273, 274, 275, 276, 277, 278, 279, 280, 281, 282, 283, 284, 285, 286, 287, 288, 289, 290, 291, 292, 293, 294, 295, 296, 297, 298, 299, 300, 301, 302, 303, 304, 305, 306, 307, 308, 309, 310, 311, 312, 313, 314, 315, 316, 317, 318, 319, 320, 321, 322, 323, 324, 325, 326, 327, 328, 329, 330, 331, 332, 333, 334, 335, 336, 337, 338, 339, 340, 341, 342, 343, 344, 345, 346, 347, 348, 349, 350, 351, 352, 353, 354, 355, 356, 357, 358, 359, 360, 361, 362, 363, 364, 365, 366, 367, 368, 369, 370, 371, 372, 373, 374, 375, 376, 377, 378, 379, 380, 381, 382, 383, 384, 385, 386, 387, 388, 389, 390, 391, 392, 393, 394, 395, 396, 397, 398, 399, 400, 401, 402, 403, 404, 405, 406, 407, 408, 409, 410, 411, 412, 413, 414, 415, 416, 417, 418, 419, 420, 421, 422, 423, 424, 425, 426, 427, 428, 429, 430, 431, 432, 433, 434, 435, 436, 437, 438, 439, 440, 441, 442, 443, 444, 445, 446, 447, 448, 449, 450, 451, 452, 453, 454, 455, 456, 457, 458, 459, 460, 461, 462, 463, 464, 465, 466, 467, 468, 469, 470, 471, 472, 473, 474, 475, 476, 477, 478, 479, 480, 481, 482, 483, 484, 485, 486, 487, 488, 489, 490, 491, 492, 493, 494, 495, 496, 497, 498],
      "AcquisitionTime": ["174008.210000", "174009.210000", "174010.210000", "174011.210000", "174012.210000", "174013.210000", "174014.210000", "174015.210000", "174016.210000", "174017.210000", "174018.210000", "174019.210000", "174020.210000", "174021.210000", "174022.210000", "174023.210000", "174024.210000", "174025.210000", "174026.210000", "174027.210000", "174028.210000", "174029.210000", "174030.210000", "174031.210000", "174032.210000", "174033.210000", "174034.210000", "174035.210000", "174036.210000", "174037.210000", "174038.210000", "174039.210000", "174040.210000", "174041.210000", "174042.210000", "174043.210000", "174044.210000", "174045.210000", "174046.210000", "174047.210000", "174048.210000", "174049.210000", "174050.210000", "174051.210000", "174052.210000", "174053.210000", "174054.210000", "174055.210000", "174056.210000", "174057.210000", "174058.210000", "174059.210000", "174100.210000", "174101.210000", "174102.210000", "174103.210000", "174104.210000", "174105.210000", "174106.210000", "174107.210000", "174108.210000", "174109.210000", "174110.210000", "174111.210000", "174112.210000", "174113.210000", "174114.210000", "174115.210000", "174116.210000", "174117.210000", "174118.210000", "174119.210000", "174120.210000", "174121.210000", "174122.210000", "174123.210000", "174124.210000", "174125.210000", "174126.210000", "174127.210000", "174128.210000", "174129.210000", "174130.210000", "174131.210000", "174132.210000", "174133.210000", "174134.210000", "174135.210000", "174136.210000", "174137.210000", "174138.210000", "174139.210000", "174140.210000", "174141.210000", "174142.210000", "174143.210000", "174144.210000", "174145.210000", "174146.210000", "174147.210000", "174148.210000", "174149.210000", "174150.210000", "174151.210000", "174152.210000", "174153.210000", "174154.210000", "174155.210000", "174156.210000", "174157.210000", "174158.210000", "174159.210000", "174200.210000", "174201.210000", "174202.210000", "174203.210000", "174204.210000", "174205.210000", "174206.210000", "174207.210000", "174208.210000", "174209.210000", "174210.210000", "174211.210000", "174212.210000", "174213.210000", "174214.210000", "174215.210000", "174216.210000", "174217.210000", "174218.210000", "174219.210000", "174220.210000", "174221.210000", "174222.210000", "174223.210000", "174224.210000", "174225.210000", "174226.210000", "174227.210000", "174228.210000", "174229.210000", "174230.210000", "174231.210000", "174232.210000", "174233.210000", "174234.210000", "174235.210000", "174236.210000", "174237.210000", "174238.210000", "174239.210000", "174240.210000", "174241.210000", "174242.210000", "174243.210000", "174244.210000", "174245.210000", "174246.210000", "174247.210000", "174248.210000", "174249.210000", "174250.210000", "174251.210000", "174252.210000", "174253.210000", "174254.210000", "174255.210000", "174256.210000", "174257.210000", "174258.210000", "174259.210000", "174300.210000", "174301.210000", "174302.210000", "174303.210000", "174304.210000", "174305.210000", "174306.210000", "174307.210000", "174308.210000", "174309.210000", "174310.210000", "174311.210000", "174312.210000", "174313.210000", "174314.210000", "174315.210000", "174316.210000", "174317.210000", "174318.210000", "174319.210000", "174320.210000", "174321.210000", "174322.210000", "174323.210000", "174324.210000", "174325.210000", "174326.210000", "174327.210000", "174328.210000", "174329.210000", "174330.210000", "174331.210000", "174332.210000", "174333.210000", "174334.210000", "174335.210000", "174336.210000", "174337.210000", "174338.210000", "174339.210000", "174340.210000", "174341.210000", "174342.210000", "174343.210000", "174344.210000", "174345.210000", "174346.210000", "174347.210000", "174348.210000", "174349.210000", "174350.210000", "174351.210000", "174352.210000", "174353.210000", "174354.210000", "174355.210000", "174356.210000", "174357.210000", "174358.210000", "174359.210000", "174400.210000", "174401.210000", "174402.210000", "174403.210000", "174404.210000", "174405.210000", "174406.210000", "174407.210000", "174408.210000", "174409.210000", "174410.210000", "174411.210000", "174412.210000", "174413.210000", "174414.210000", "174415.210000", "174416.210000", "174417.210000", "174418.210000", "174419.210000", "174420.210000", "174421.210000", "174422.210000", "174423.210000", "174424.210000", "174425.210000", "174426.210000", "174427.210000", "174428.210000", "174429.210000", "174430.210000", "174431.210000", "174432.210000", "174433.210000", "174434.210000", "174435.210000", "174436.210000", "174437.210000", "174438.210000", "174439.210000", "174440.210000", "174441.210000", "174442.210000", "174443.210000", "174444.210000", "174445.210000", "174446.210000", "174447.210000", "174448.210000", "174449.210000", "174450.210000", "174451.210000", "174452.210000", "174453.210000", "174454.210000", "174455.210000", "174456.210000", "174457.210000", "174458.210000", "174459.210000", "174500.210000", "174501.210000", "174502.210000", "174503.210000", "174504.210000", "174505.210000", "174506.210000", "174507.210000", "174508.210000", "174509.210000", "174510.210000", "174511.210000", "174512.210000", "174513.210000", "174514.210000", "174515.210000", "174516.210000", "174517.210000", "174518.210000", "174519.210000", "174520.210000", "174521.210000", "174522.210000", "174523.210000", "174524.210000", "174525.210000", "174526.210000", "174527.210000", "174528.210000", "174529.210000", "174530.210000", "174531.210000", "174532.210000", "174533.210000", "174534.210000", "174535.210000", "174536.210000", "174537.210000", "174538.210000", "174539.210000", "174540.210000", "174541.210000", "174542.210000", "174543.210000", "174544.210000", "174545.210000", "174546.210000", "174547.210000", "174548.210000", "174549.210000", "174550.210000", "174551.210000", "174552.210000", "174553.210000", "174554.210000", "174555.210000", "174556.210000", "174557.210000", "174558.210000", "174559.210000", "174600.210000", "174601.210000", "174602.210000", "174603.210000", "174604.210000", "174605.210000", "174606.210000", "174607.210000", "174608.210000", "174609.210000", "174610.210000", "174611.210000", "174612.210000", "174613.210000", "174614.210000", "174615.210000", "174616.210000", "174617.210000", "174618.210000", "174619.210000", "174620.210000", "174621.210000", "174622.210000", "174623.210000", "174624.210000", "174625.210000", "174626.210000", "174627.210000", "174628.210000", "174629.210000", "174630.210000", "174631.210000", "174632.210000", "174633.210000", "174634.210000", "174635.210000", "174636.210000", "174637.210000", "174638.210000", "174639.210000", "174640.210000", "174641.210000", "174642.210000", "174643.210000", "174644.210000", "174645.210000", "174646.210000", "174647.210000", "174648.210000", "174649.210000", "174650.210000", "174651.210000", "174652.210000", "174653.210000", "174654.210000", "174655.210000", "174656.210000", "174657.210000", "174658.210000", "174659.210000", "174700.210000", "174701.210000", "174702.210000", "174703.210000", "174704.210000", "174705.210000", "174706.210000", "174707.210000", "174708.210000", "174709.210000", "174710.210000", "174711.210000", "174712.210000", "174713.210000", "174714.210000", "174715.210000", "174716.210000", "174717.210000", "174718.210000", "174719.210000", "174720.210000", "174721.210000", "174722.210000", "174723.210000", "174724.210000", "174725.210000", "174726.210000", "174727.210000", "174728.210000", "174729.210000", "174730.210000", "174731.210000", "174732.210000", "174733.210000", "174734.210000", "174735.210000", "174736.210000", "174737.210000", "174738.210000", "174739.210000", "174740.210000", "174741.210000", "174742.210000", "174743.210000", "174744.210000", "174745.210000", "174746.210000", "174747.210000", "174748.210000", "174749.210000", "174750.210000", "174751.210000", "174752.210000", "174753.210000", "174754.210000", "174755.210000", "174756.210000", "174757.210000", "174758.210000", "174759.210000", "174800.210000", "174801.210000", "174802.210000", "174803.210000", "174804.210000", "174805.210000", "174806.210000", "174807.210000", "174808.210000", "174809.210000", "174810.210000", "174811.210000", "174812.210000", "174813.210000", "174814.210000", "174815.210000", "174816.210000", "174817.210000", "174818.210000", "174819.210000", "174820.210000", "174821.210000", "174822.210000", "174823.210000", "174824.210000", "174825.210000"],
      "ContentTime": ["174009.631000", "174010.456000", "174011.461000", "174012.454000", "174013.472000", "174014.444000", "174015.444000", "174016.475000", "174017.459000", "174018.452000", "174019.472000", "174020.455000", "174021.461000", "174022.455000", "174023.451000", "174024.445000", "174025.439000", "174026.446000", "174027.448000", "174028.453000", "174029.472000", "174030.436000", "174031.440000", "174032.471000", "174033.454000", "174034.459000", "174035.500000", "174036.460000", "174037.449000", "174038.446000", "174039.439000", "174040.459000", "174041.460000", "174042.457000", "174043.491000", "174044.471000", "174045.451000", "174046.448000", "174047.468000", "174048.445000", "174049.451000", "174050.443000", "174051.437000", "174052.430000", "174053.463000", "174054.466000", "174055.442000", "174056.441000", "174057.423000", "174058.435000", "174059.464000", "174100.445000", "174101.457000", "174102.437000", "174103.470000", "174104.447000", "174105.480000", "174106.473000", "174107.453000", "174108.437000", "174109.466000", "174110.450000", "174111.463000", "174112.453000", "174113.464000", "174114.426000", "174115.448000", "174116.456000", "174117.536000", "174118.459000", "174119.457000", "174120.447000", "174121.482000", "174122.451000", "174123.440000", "174124.461000", "174125.468000", "174126.506000", "174127.470000", "174128.470000", "174129.453000", "174130.461000", "174131.429000", "174132.464000", "174133.464000", "174134.438000", "174135.468000", "174136.462000", "174137.471000", "174138.482000", "174139.461000", "174140.448000", "174141.444000", "174142.467000", "174143.481000", "174144.475000", "174145.453000", "174146.451000", "174147.451000", "174148.446000", "174149.460000", "174150.464000", "174151.461000", "174152.452000", "174153.486000", "174154.457000", "174155.453000", "174156.442000", "174157.457000", "174158.457000", "174159.426000", "174200.425000", "174201.459000", "174202.457000", "174203.532000", "174204.456000", "174205.461000", "174206.448000", "174207.466000", "174208.458000", "174209.454000", "174210.444000", "174211.467000", "174212.437000", "174213.463000", "174214.426000", "174215.459000", "174216.466000", "174217.459000", "174218.434000", "174219.454000", "174220.450000", "174221.499000", "174222.478000", "174223.458000", "174224.480000", "174225.462000", "174226.465000", "174227.471000", "174228.450000", "174229.456000", "174230.457000", "174231.473000", "174232.447000", "174233.439000", "174234.441000", "174235.443000", "174236.455000", "174237.458000", "174238.446000", "174239.447000", "174240.447000", "174241.457000", "174242.466000", "174243.475000", "174244.456000", "174245.468000", "174246.437000", "174247.483000", "174248.467000", "174249.455000", "174250.509000", "174251.465000", "174252.469000", "174253.449000", "174254.471000", "174255.498000", "174256.460000", "174257.475000", "174258.455000", "174259.457000", "174300.490000", "174301.451000", "174302.459000", "174303.442000", "174304.437000", "174305.453000", "174306.512000", "174307.465000", "174308.466000", "174309.448000", "174310.440000", "174311.461000", "174312.449000", "174313.455000", "174314.445000", "174315.448000", "174316.471000", "174317.480000", "174318.460000", "174319.458000", "174320.438000", "174321.469000", "174322.476000", "174323.460000", "174324.459000", "174325.436000", "174326.457000", "174327.456000", "174328.480000", "174329.485000", "174330.466000", "174331.477000", "174332.477000", "174333.445000", "174334.459000", "174335.450000", "174336.436000", "174337.463000", "174338.456000", "174339.448000", "174340.500000", "174341.478000", "174342.469000", "174343.457000", "174344.475000", "174345.480000", "174346.464000", "174347.480000", "174348.459000", "174349.523000", "174350.483000", "174351.456000", "174352.460000", "174353.466000", "174354.464000", "174355.471000", "174356.466000", "174357.486000", "174358.475000", "174359.494000", "174400.500000", "174401.501000", "174402.451000", "174403.456000", "174404.498000", "174405.470000", "174406.475000", "174407.445000", "174408.459000", "174409.482000", "174410.491000", "174411.469000", "174412.446000", "174413.428000", "174414.486000", "174415.456000", "174416.455000", "174417.470000", "174418.445000", "174419.451000", "174420.487000", "174421.439000", "174422.463000", "174423.509000", "174424.453000", "174425.449000", "174426.467000", "174427.462000", "174428.455000", "174429.459000", "174430.481000", "174431.484000", "174432.466000", "174433.457000", "174434.467000", "174435.421000", "174436.464000", "174437.454000", "174438.444000", "174439.448000", "174440.441000", "174441.474000", "174442.489000", "174443.459000", "174444.441000", "174445.456000", "174446.478000", "174447.452000", "174448.457000", "174449.490000", "174450.521000", "174451.482000", "174452.445000", "174453.426000", "174454.445000", "174455.445000", "174456.468000", "174457.470000", "174458.448000", "174459.412000", "174500.448000", "174501.461000", "174502.504000", "174503.468000", "174504.460000", "174505.464000", "174506.451000", "174507.447000", "174508.462000", "174509.472000", "174510.423000", "174511.452000", "174512.452000", "174513.464000", "174514.435000", "174515.452000", "174516.464000", "174517.486000", "174518.430000", "174519.436000", "174520.474000", "174521.458000", "174522.460000", "174523.479000", "174524.467000", "174525.456000", "174526.428000", "174527.440000", "174528.436000", "174529.472000", "174530.518000", "174531.460000", "174532.473000", "174533.460000", "174534.460000", "174535.432000", "174536.460000", "174537.434000", "174538.430000", "174539.466000", "174540.463000", "174541.462000", "174542.459000", "174543.452000", "174544.446000", "174545.442000", "174546.436000", "174547.460000", "174548.460000", "174549.448000", "174550.425000", "174551.467000", "174552.463000", "174553.467000", "174554.460000", "174555.468000", "174556.438000", "174557.452000", "174558.439000", "174559.427000", "174600.497000", "174601.482000", "174602.486000", "174603.443000", "174604.458000", "174605.467000", "174606.441000", "174607.460000", "174608.444000", "174609.442000", "174610.450000", "174611.489000", "174612.479000", "174613.439000", "174614.450000", "174615.464000", "174616.491000", "174617.482000", "174618.437000", "174619.428000", "174620.448000", "174621.449000", "174622.447000", "174623.460000", "174624.454000", "174625.436000", "174626.452000", "174627.465000", "174628.473000", "174629.449000", "174630.455000", "174631.458000", "174632.476000", "174633.451000", "174634.475000", "174635.453000", "174636.459000", "174637.456000", "174638.452000", "174639.451000", "174640.429000", "174641.423000", "174642.447000", "174643.471000", "174644.513000", "174645.458000", "174646.459000", "174647.443000", "174648.440000", "174649.441000", "174650.487000", "174651.466000", "174652.449000", "174653.481000", "174654.469000", "174655.464000", "174656.414000", "174657.502000", "174658.485000", "174659.445000", "174700.485000", "174701.447000", "174702.449000", "174703.447000", "174704.488000", "174705.506000", "174706.459000", "174707.461000", "174708.444000", "174709.459000", "174710.531000", "174711.451000", "174712.472000", "174713.475000", "174714.447000", "174715.461000", "174716.442000", "174717.453000", "174718.448000", "174719.449000", "174720.436000", "174721.457000", "174722.453000", "174723.495000", "174724.449000", "174725.447000", "174726.452000", "174727.458000", "174728.461000", "174729.426000", "174730.439000", "174731.447000", "174732.428000", "174733.465000", "174734.447000", "174735.450000", "174736.455000", "174737.454000", "174738.447000", "174739.455000", "174740.451000", "174741.474000", "174742.454000", "174743.485000", "174744.439000", "174745.474000", "174746.450000", "174747.459000", "174748.472000", "174749.454000", "174750.449000", "174751.461000", "174752.443000", "174753.443000", "174754.466000", "174755.453000", "174756.462000", "174757.442000", "174758.439000", "174759.445000", "174800.449000", "174801.439000", "174802.460000", "174803.490000", "174804.471000", "174805.514000", "174806.464000", "174807.437000", "174808.460000", "174809.447000", "174810.458000", "174811.469000", "174812.465000", "174813.476000", "174814.433000", "174815.434000", "174816.433000", "174817.450000", "174818.449000", "174819.437000", "174820.459000", "174821.430000", "174822.497000", "174823.464000", "174824.422000", "174825.459000", "174826.500000"],
