{
  "AcquisitionMatrixPE": 96,
  "AcquisitionNumber": 1,
  "AcquisitionTime": "20:19:2.035000",
  "BaseResolution": 96,
  "BodyPartExamined": "BRAIN",
  "ConsistencyInfo": "N4_VE11C_LATEST_20160120",
  "ConversionSoftware": "dcm2niix",
  "ConversionSoftwareVersion": "v1.0.20190902",
  "DeviceSerialNumber": "66112",
  "DwellTime": 8.8e-06,
  "EchoNumber": 2,
  "EchoTime": 0.00738,
  "EchoTime1": 0.00492,
  "EchoTime2": 0.00738,
  "FlipAngle": 60,
  "ImageOrientationPatientDICOM": [
    0.998759,
    0.0493732,
    -0.00657226,
    -0.0493717,
    0.99878,
    0.000394982
  ],
  "ImageType": [
    "ORIGINAL",
    "PRIMARY",
    "P",
    "ND"
  ],
  "ImagingFrequency": 123.252,
  "InPlanePhaseEncodingDirectionDICOM": "COL",
  "InstitutionAddress": "Maynard_3_Hanover_NH_US_03755",
  "InstitutionName": "Dartmouth_College_-_PBS",
  "InstitutionalDepartmentName": "Department",
  "IntendedFor": [
    "func/sub-sid000024_task-movie_run-01_bold.nii.gz",
    "func/sub-sid000024_task-movie_run-02_bold.nii.gz",
    "func/sub-sid000024_task-movie_run-03_bold.nii.gz",
    "func/sub-sid000024_task-movie_run-04_bold.nii.gz",
    "func/sub-sid000024_task-movie_run-05_bold.nii.gz"
  ],
  "MRAcquisitionType": "2D",
  "MagneticFieldStrength": 3,
  "Manufacturer": "Siemens",
  "ManufacturersModelName": "Prisma",
  "Modality": "MR",
  "PartialFourier": 1,
  "PatientPosition": "HFS",
  "PercentPhaseFOV": 100,
  "PhaseEncodingDirection": "j-",
  "PhaseEncodingSteps": 96,
  "PhaseResolution": 1,
  "PixelBandwidth": 590,
  "ProcedureStepDescription": "Gobbini_Matteo_1037_budapest",
  "ProtocolName": "fmap_acq-2.5mm",
  "PulseSequenceDetails": "%SiemensSeq%_gre_field_mapping",
  "ReceiveCoilActiveElements": "HEA;HEP",
  "ReceiveCoilName": "Head_32",
  "ReconMatrixPE": 96,
  "RepetitionTime": 0.675,
  "SAR": 0.100566,
  "ScanningSequence": "GR",
  "SequenceName": "_fm2d2r",
  "SequenceVariant": "SP",
  "SeriesDescription": "fmap_acq-2.5mm",
  "SeriesNumber": 7,
  "ShimSetting": [
    4140,
    -7723,
    -7260,
    540,
    -50,
    -26,
    -25,
    91
  ],
  "SliceThickness": 2.5,
  "SliceTiming": [
    0.32812,
    0,
    0.34375,
    0,
    0.35938,
    0.01562,
    0.375,
    0.03125,
    0.39062,
    0.04688,
    0.40625,
    0.0625,
    0.42188,
    0.07812,
    0.42188,
    0.09375,
    0.4375,
    0.10938,
    0.45312,
    0.125,
    0.46875,
    0.14062,
    0.48438,
    0.15625,
    0.5,
    0.15625,
    0.51562,
    0.17188,
    0.53125,
    0.1875,
    0.54688,
    0.20312,
    0.5625,
    0.21875,
    0.5625,
    0.23438,
    0.57812,
    0.25,
    0.59375,
    0.26562,
    0.60938,
    0.28125,
    0.625,
    0.29688,
    0.64062,
    0.29688,
    0.65625,
    0.3125
  ],
  "SoftwareVersions": "syngo_MR_E11",
  "SpacingBetweenSlices": 2.5,
  "StationName": "AWP66112",
  "TxRefAmp": 268.301,
  "dcmmeta_affine": [
    [
      -2.496896982192993,
      -0.12342917174100876,
      -0.016458988189697266,
      130.5311279296875
    ],
    [
      -0.12343299388885498,
      2.496951103210449,
      0.00017547607421875,
      -100.1607894897461
    ],
    [
      -0.016430655494332314,
      -0.000987455016002059,
      2.4999465942382812,
      -63.935325622558594
    ],
    [
      0.0,
      0.0,
      0.0,
      1.0
    ]
  ],
  "dcmmeta_reorient_transform": [
    [
      0.0,
      -1.0,
      0.0,
      95.0
    ],
    [
      1.0,
      0.0,
      0.0,
      0.0
    ],
    [
      0.0,
      0.0,
      -1.0,
      47.0
    ],
    [
      0.0,
      0.0,
      0.0,
      1.0
    ]
  ],
  "dcmmeta_shape": [
    96,
    96,
    48
  ],
  "dcmmeta_slice_dim": 2,
  "dcmmeta_version": 0.6,
  "global": {
    "const": {
      "AccessionNumber": "A001107",
      "AcquisitionMatrix": [
        96,
        0,
        0,
        96
      ],
      "AcquisitionNumber": 1,
      "AngioFlag": "N",
      "BitsAllocated": 16,
      "BitsStored": 12,
      "BodyPartExamined": "BRAIN",
      "Columns": 96,
      "EchoNumbers": 2,
      "EchoTime": 7.38,
      "EchoTrainLength": 0,
      "FlipAngle": 60.0,
      "HighBit": 11,
      "ImageOrientationPatient": [
        0.99875877604274,
        0.04937319768249,
        -0.0065722620324,
        -0.0493716673787,
        0.99878039750961,
        0.00039498201232
      ],
      "ImageType": [
        "ORIGINAL",
        "PRIMARY",
        "P",
        "ND"
      ],
      "ImagedNucleus": "1H",
      "ImagingFrequency": 123.252308,
      "InPlanePhaseEncodingDirection": "COL",
      "MRAcquisitionType": "2D",
      "MagneticFieldStrength": 3.0,
      "Manufacturer": "SIEMENS",
      "ManufacturerModelName": "Prisma",
      "Modality": "MR",
      "NumberOfAverages": 1.0,
      "NumberOfPhaseEncodingSteps": 96,
      "PercentPhaseFieldOfView": 100.0,
      "PercentSampling": 100.0,
      "PerformedProcedureStepStartTime": "200346.011000",
      "PhotometricInterpretation": "MONOCHROME2",
      "PixelBandwidth": 590.0,
      "PixelRepresentation": 0,
      "PixelSpacing": [
        2.5,
        2.5
      ],
      "ProtocolName": "fmap_acq-2.5mm",
      "RepetitionTime": 675.0,
      "RescaleIntercept": -4096.0,
      "RescaleSlope": 2.0,
      "RescaleType": "US",
      "Rows": 96,
      "SAR": 0.10056619553075,
      "SamplesPerPixel": 1,
      "ScanningSequence": "GR",
      "SequenceName": "*fm2d2r",
      "SequenceVariant": "SP",
      "SeriesDescription": "fmap_acq-2.5mm",
      "SeriesNumber": 7,
      "SeriesTime": "202112.189000",
      "SliceThickness": 2.5,
      "SoftwareVersions": "syngo MR E11",
      "SpacingBetweenSlices": 2.5,
      "SpecificCharacterSet": "ISO_IR 100",
      "StudyID": "1",
      "StudyTime": "200345.956000",
      "TransmitCoilName": "Body",
      "VariableFlipAngleFlag": "N",
      "WindowCenterWidthExplanation": "Algo1",
      "dBdt": 0.0
    },
    "slices": {
      "AcquisitionTime": [
        "201902.035000",
        "201901.697500",
        "201902.047500",
        "201901.710000",
        "201902.062500",
        "201901.725000",
        "201902.077500",
        "201901.740000",
        "201902.090000",
        "201901.752500",
        "201902.105000",
        "201901.767500",
        "201902.120000",
        "201901.782500",
        "201902.132500",
        "201901.795000",
        "201902.147500",
        "201901.810000",
        "201902.160000",
        "201901.822500",
        "201902.175000",
        "201901.837500",
        "201902.190000",
        "201901.852500",
        "201902.202500",
        "201901.865000",
        "201902.217500",
        "201901.880000",
        "201902.232500",
        "201901.895000",
        "201902.245000",
        "201901.907500",
        "201902.260000",
        "201901.922500",
        "201902.272500",
        "201901.935000",
        "201902.287500",
        "201901.950000",
        "201902.302500",
        "201901.965000",
        "201902.315000",
        "201901.977500",
        "201902.330000",
        "201901.992500",
        "201902.345000",
        "201902.007500",
        "201902.357500",
        "201902.020000"
      ],
      "ContentTime": [
        "202112.240000",
        "202112.191000",
        "202112.243000",
        "202112.194000",
        "202112.250000",
        "202112.196000",
        "202112.252000",
        "202112.198000",
        "202112.254000",
        "202112.200000",
        "202112.256000",
        "202112.202000",
        "202112.258000",
        "202112.204000",
        "202112.260000",
        "202112.206000",
        "202112.262000",
        "202112.208000",
        "202112.264000",
        "202112.210000",
        "202112.266000",
        "202112.212000",
        "202112.268000",
        "202112.214000",
        "202112.270000",
        "202112.216000",
        "202112.272000",
        "202112.218000",
        "202112.274000",
        "202112.220000",
        "202112.276000",
        "202112.222000",
        "202112.278000",
        "202112.224000",
        "202112.280000",
        "202112.226000",
        "202112.282000",
        "202112.228000",
        "202112.284000",
        "202112.230000",
        "202112.286000",
        "202112.233000",
        "202112.288000",
        "202112.235000",
        "202112.290000",
        "202112.236000",
        "202112.292000",
        "202112.239000"
      ],
      "CsaImage.ICE_Dims": [
        "X_2_1_1_1_1_1_25_1_1_1_1_102",
        "X_2_1_1_1_1_1_1_1_1_2_1_102",
        "X_2_1_1_1_1_1_26_1_1_3_1_102",
        "X_2_1_1_1_1_1_2_1_1_4_1_102",
        "X_2_1_1_1_1_1_27_1_1_5_1_102",
        "X_2_1_1_1_1_1_3_1_1_6_1_102",
        "X_2_1_1_1_1_1_28_1_1_7_1_102",
        "X_2_1_1_1_1_1_4_1_1_8_1_102",
        "X_2_1_1_1_1_1_29_1_1_9_1_102",
        "X_2_1_1_1_1_1_5_1_1_10_1_102",
        "X_2_1_1_1_1_1_30_1_1_11_1_102",
        "X_2_1_1_1_1_1_6_1_1_12_1_102",
        "X_2_1_1_1_1_1_31_1_1_13_1_102",
        "X_2_1_1_1_1_1_7_1_1_14_1_102",
        "X_2_1_1_1_1_1_32_1_1_15_1_102",
        "X_2_1_1_1_1_1_8_1_1_16_1_102",
        "X_2_1_1_1_1_1_33_1_1_17_1_102",
        "X_2_1_1_1_1_1_9_1_1_18_1_102",
        "X_2_1_1_1_1_1_34_1_1_19_1_102",
        "X_2_1_1_1_1_1_10_1_1_20_1_102",
        "X_2_1_1_1_1_1_35_1_1_21_1_102",
        "X_2_1_1_1_1_1_11_1_1_22_1_102",
        "X_2_1_1_1_1_1_36_1_1_23_1_102",
        "X_2_1_1_1_1_1_12_1_1_24_1_102",
        "X_2_1_1_1_1_1_37_1_1_25_1_102",
        "X_2_1_1_1_1_1_13_1_1_26_1_102",
        "X_2_1_1_1_1_1_38_1_1_27_1_102",
        "X_2_1_1_1_1_1_14_1_1_28_1_102",
        "X_2_1_1_1_1_1_39_1_1_29_1_102",
        "X_2_1_1_1_1_1_15_1_1_30_1_102",
        "X_2_1_1_1_1_1_40_1_1_31_1_102",
        "X_2_1_1_1_1_1_16_1_1_32_1_102",
        "X_2_1_1_1_1_1_41_1_1_33_1_102",
        "X_2_1_1_1_1_1_17_1_1_34_1_102",
        "X_2_1_1_1_1_1_42_1_1_35_1_102",
        "X_2_1_1_1_1_1_18_1_1_36_1_102",
        "X_2_1_1_1_1_1_43_1_1_37_1_102",
        "X_2_1_1_1_1_1_19_1_1_38_1_102",
        "X_2_1_1_1_1_1_44_1_1_39_1_102",
        "X_2_1_1_1_1_1_20_1_1_40_1_102",
        "X_2_1_1_1_1_1_45_1_1_41_1_102",
        "X_2_1_1_1_1_1_21_1_1_42_1_102",
        "X_2_1_1_1_1_1_46_1_1_43_1_102",
        "X_2_1_1_1_1_1_22_1_1_44_1_102",
        "X_2_1_1_1_1_1_47_1_1_45_1_102",
        "X_2_1_1_1_1_1_23_1_1_46_1_102",
        "X_2_1_1_1_1_1_48_1_1_47_1_102",
        "X_2_1_1_1_1_1_24_1_1_48_1_102"
      ],
      "CsaImage.ProtocolSliceNumber": [
        0,
        1,
        2,
        3,
        4,
        5,
        6,
        7,
        8,
        9,
        10,
        11,
        12,
        13,
        14,
        15,
        16,
        17,
        18,
        19,
        20,
        21,
        22,
        23,
        24,
        25,
        26,
        27,
        28,
        29,
        30,
        31,
        32,
        33,
        34,
        35,
        36,
        37,
        38,
        39,
        40,
        41,
        42,
        43,
        44,
        45,
        46,
        47
      ],
      "CsaImage.SlicePosition_PCS": [
        [
          -118.80537836,
          -137.04957915,
          -64.02909688
        ],
        [
          -118.7889189,
          -137.04975463,
          -61.5291541
        ],
        [
          -118.77245991,
          -137.04992915,
          -59.02920751
        ],
        [
          -118.75600044,
          -137.05010463,
          -56.52926091
        ],
        [
          -118.73954098,
          -137.05027915,
          -54.02931432
        ],
        [
          -118.72308151,
          -137.05045462,
          -51.52936772
        ],
        [
          -118.70662205,
          -137.05062915,
          -49.02942494
        ],
        [
          -118.69016306,
          -137.05080462,
          -46.52947835
        ],
        [
          -118.6737036,
          -137.05097914,
          -44.02953176
        ],
        [
          -118.65724413,
          -137.05115462,
          -41.52958516
        ],
        [
          -118.64078467,
          -137.05132914,
          -39.02963857
        ],
        [
          -118.6243252,
          -137.05150462,
          -36.52969579
        ],
        [
          -118.60786621,
          -137.0516801,
          -34.02974919
        ],
        [
          -118.59140675,
          -137.05185462,
          -31.5298026
        ],
        [
          -118.57494728,
          -137.05203009,
          -29.02985791
        ],
        [
          -118.55848782,
          -137.05220462,
          -26.52991132
        ],
        [
          -118.54202835,
          -137.05238009,
          -24.02996472
        ],
        [
          -118.52556937,
          -137.05255461,
          -21.53002004
        ],
        [
          -118.5091099,
          -137.05273009,
          -19.03007344
        ],
        [
          -118.49265044,
          -137.05290461,
          -16.53012876
        ],
        [
          -118.47619097,
          -137.05308009,
          -14.03018216
        ],
        [
          -118.4597315,
          -137.05325461,
          -11.53023652
        ],
        [
          -118.44327252,
          -137.05343009,
          -9.03029088
        ],
        [
          -118.42681305,
          -137.05360461,
          -6.53034476
        ],
        [
          -118.41035359,
          -137.05378009,
          -4.03039912
        ],
        [
          -118.39389412,
          -137.05395461,
          -1.53045324
        ],
        [
          -118.37743466,
          -137.05413008,
          0.96949258
        ],
        [
          -118.36097567,
          -137.05430461,
          3.46943828
        ],
        [
          -118.3445162,
          -137.05448008,
          5.96938439
        ],
        [
          -118.32805674,
          -137.05465461,
          8.46933003
        ],
        [
          -118.31159727,
          -137.05483008,
          10.96927615
        ],
        [
          -118.29513781,
          -137.0550046,
          13.46922179
        ],
        [
          -118.27867882,
          -137.05518008,
          15.96916743
        ],
        [
          -118.26221936,
          -137.0553546,
          18.46911403
        ],
        [
          -118.24575989,
          -137.05553008,
          20.96905871
        ],
        [
          -118.22930043,
          -137.05570555,
          23.46900531
        ],
        [
          -118.21284096,
          -137.05588008,
          25.96894999
        ],
        [
          -118.19638197,
          -137.05605555,
          28.46889659
        ],
        [
          -118.17992251,
          -137.05623008,
          30.96884318
        ],
        [
          -118.16346304,
          -137.05640555,
          33.46878978
        ],
        [
          -118.14700358,
          -137.05658007,
          35.96873256
        ],
        [
          -118.13054411,
          -137.05675555,
          38.46867915
        ],
        [
          -118.11408512,
          -137.05693007,
          40.96862574
        ],
        [
          -118.09762566,
          -137.05710555,
          43.46857234
        ],
        [
          -118.08116619,
          -137.05728007,
          45.96851893
        ],
        [
          -118.06470673,
          -137.05745555,
          48.46846171
        ],
        [
          -118.04824726,
          -137.05763007,
          50.96840831
        ],
        [
          -118.03178828,
          -137.05780555,
          53.4683549
        ]
      ],
      "CsaImage.TimeAfterStart": [
        1.015,
        0.6775,
        1.0275,
        0.69,
        1.0425,
        0.705,
        1.0575,
        0.72,
        1.07,
        0.7325,
        1.085,
        0.7475,
        1.1,
        0.7625,
        1.1125,
        0.775,
        1.1275,
        0.79,
        1.14,
        0.8025,
        1.155,
        0.8175,
        1.17,
        0.8325,
        1.1825,
        0.845,
        1.1975,
        0.86,
        1.2125,
        0.875,
        1.225,
        0.8875,
        1.24,
        0.9025,
        1.2525,
        0.915,
        1.2675,
        0.93,
        1.2825,
        0.945,
        1.295,
        0.9575,
        1.31,
        0.9725,
        1.325,
        0.9875,
        1.3375,
        1.0
      ],
      "ImagePositionPatient": [
        [
          -118.80537836317,
          -137.04957915102,
          -64.029096880983
        ],
        [
          -118.78891889814,
          -137.04975462709,
          -61.529154101442
        ],
        [
          -118.77245990995,
          -137.04992914949,
          -59.029207507203
        ],
        [
          -118.75600044493,
          -137.05010462557,
          -56.529260912965
        ],
        [
          -118.7395409799,
          -137.05027914797,
          -54.029314318727
        ],
        [
          -118.72308151487,
          -137.05045462404,
          -51.529367724489
        ],
        [
          -118.70662204985,
          -137.05062914644,
          -49.029424944948
        ],
        [
          -118.69016306166,
          -137.05080462252,
          -46.529478350709
        ],
        [
          -118.67370359663,
          -137.05097914492,
          -44.029531756471
        ],
        [
          -118.6572441316,
          -137.05115462099,
          -41.529585162233
        ],
        [
          -118.64078466657,
          -137.05132914339,
          -39.029638567994
        ],
        [
          -118.62432520155,
          -137.05150461946,
          -36.529695788453
        ],
        [
          -118.60786621336,
          -137.05168009554,
          -34.029749194215
        ],
        [
          -118.59140674833,
          -137.05185461794,
          -31.529802599977
        ],
        [
          -118.5749472833,
          -137.05203009401,
          -29.029857913087
        ],
        [
          -118.55848781828,
          -137.05220461641,
          -26.529911318849
        ],
        [
          -118.54202835325,
          -137.05238009249,
          -24.029964724611
        ],
        [
          -118.52556936506,
          -137.05255461489,
          -21.530020037721
        ],
        [
          -118.50910990003,
          -137.05273009096,
          -19.030073443483
        ],
        [
          -118.49265043501,
          -137.05290461336,
          -16.530128756593
        ],
        [
          -118.47619096998,
          -137.05308008943,
          -14.030182162355
        ],
        [
          -118.45973150495,
          -137.05325461183,
          -11.530236521791
        ],
        [
          -118.44327251676,
          -137.05343008791,
          -9.0302908812269
        ],
        [
          -118.42681305174,
          -137.05360461031,
          -6.5303447638257
        ],
        [
          -118.41035358671,
          -137.05378008638,
          -4.0303991232618
        ],
        [
          -118.39389412168,
          -137.05395460878,
          -1.5304532442792
        ],
        [
          -118.37743465666,
          -137.05413008486,
          0.96949257509867
        ],
        [
          -118.36097566847,
          -137.05430460726,
          3.4694382752673
        ],
        [
          -118.34451620344,
          -137.05448008333,
          5.9693843926684
        ],
        [
          -118.32805673841,
          -137.05465460573,
          8.4693300332324
        ],
        [
          -118.31159727339,
          -137.0548300818,
          10.969276150633
        ],
        [
          -118.29513780836,
          -137.0550046042,
          13.469221791197
        ],
        [
          -118.27867882017,
          -137.05518008028,
          15.969167431761
        ],
        [
          -118.26221935514,
          -137.05535460268,
          18.469114026
        ],
        [
          -118.24575989012,
          -137.05553007875,
          20.969058712889
        ],
        [
          -118.22930042509,
          -137.05570555483,
          23.469005307128
        ],
        [
          -118.21284096006,
          -137.05588007723,
          25.968949994017
        ],
        [
          -118.19638197187,
          -137.0560555533,
          28.468896588256
        ],
        [
          -118.17992250685,
          -137.0562300757,
          30.968843182494
        ],
        [
          -118.16346304182,
          -137.05640555178,
          33.468789776732
        ],
        [
          -118.14700357679,
          -137.05658007418,
          35.968732556273
        ],
        [
          -118.13054411177,
          -137.05675555025,
          38.468679150511
        ],
        [
          -118.11408512358,
          -137.05693007265,
          40.96862574475
        ],
        [
          -118.09762565855,
          -137.05710554872,
          43.468572338988
        ],
        [
          -118.08116619352,
          -137.05728007112,
          45.968518933226
        ],
        [
          -118.06470672849,
          -137.0574555472,
          48.468461712767
        ],
        [
          -118.04824726347,
          -137.0576300696,
          50.968408307006
        ],
        [
          -118.03178827528,
          -137.05780554567,
          53.468354901244
        ]
      ],
      "InstanceCreationTime": [
        "202112.240000",
        "202112.191000",
        "202112.243000",
        "202112.194000",
        "202112.250000",
        "202112.196000",
        "202112.252000",
        "202112.198000",
        "202112.254000",
        "202112.200000",
        "202112.256000",
        "202112.202000",
        "202112.258000",
        "202112.204000",
        "202112.260000",
        "202112.206000",
        "202112.262000",
        "202112.208000",
        "202112.264000",
        "202112.210000",
        "202112.266000",
        "202112.212000",
        "202112.268000",
        "202112.214000",
        "202112.270000",
        "202112.216000",
        "202112.272000",
        "202112.218000",
        "202112.274000",
        "202112.220000",
        "202112.276000",
        "202112.222000",
        "202112.278000",
        "202112.224000",
        "202112.280000",
        "202112.226000",
        "202112.282000",
        "202112.228000",
        "202112.284000",
        "202112.230000",
        "202112.286000",
        "202112.233000",
        "202112.288000",
        "202112.235000",
        "202112.290000",
        "202112.236000",
        "202112.292000",
        "202112.239000"
      ],
      "InstanceNumber": [
        1,
        2,
        3,
        4,
        5,
        6,
        7,
        8,
        9,
        10,
        11,
        12,
        13,
        14,
        15,
        16,
        17,
        18,
        19,
        20,
        21,
        22,
        23,
        24,
        25,
        26,
        27,
        28,
        29,
        30,
        31,
        32,
        33,
        34,
        35,
        36,
        37,
        38,
        39,
        40,
        41,
        42,
        43,
        44,
        45,
        46,
        47,
        48
      ],
      "LargestImagePixelValue": [
        4091,
        4093,
        4094,
        4095,
        4095,
        4094,
        4093,
        4094,
        4093,
        4085,
        4095,
        4093,
        4094,
        4095,
        4088,
        4095,
        4093,
        4095,
        4095,
        4090,
        4086,
        4092,
        4091,
        4095,
        4093,
        4088,
        4092,
        4089,
        4087,
        4094,
        4085,
        4095,
        4091,
        4088,
        4094,
        4094,
        4093,
        4094,
        4094,
        4093,
        4095,
        4094,
        4094,
        4092,
        4094,
        4094,
        4094,
        4093
      ],
      "SliceLocation": [
        -64.800299091652,
        -62.300302122502,
        -59.800301341943,
        -57.300300558179,
        -54.800299774481,
        -52.300298990716,
        -49.800302021633,
        -47.300301241007,
        -44.800300457309,
        -42.300299673545,
        -39.800298889847,
        -37.300301920697,
        -34.800301140071,
        -32.300300356373,
        -29.800301479916,
        -27.300300696218,
        -24.800299912453,
        -22.300301039202,
        -19.800300255437,
        -17.300301379047,
        -14.800300595282,
        -12.300300765238,
        -9.8003009382658,
        -7.3003006313947,
        -4.8003008012836,
        -2.3003007328259,
        0.19969927609523,
        2.6996991626035,
        5.1996994695414,
        7.6996992995857,
        10.199699606524,
        12.699699436568,
        15.19969926354,
        17.699700047238,
        20.199698923695,
        22.69969970746,
        25.19969858385,
        27.699699364476,
        30.199700148174,
        32.699700931938,
        35.199697901022,
        37.699698684786,
        40.199699465345,
        42.69970024911,
        45.199701032808,
        47.699698001958,
        50.199698785656,
        52.699699566281
      ],
      "SmallestImagePixelValue": [
        1,
        0,
        0,
        2,
        0,
        0,
        0,
        1,
        0,
        0,
        6,
        4,
        5,
        0,
        0,
        3,
        8,
        2,
        6,
        12,
        0,
        4,
        1,
        2,
        5,
        13,
        2,
        6,
        1,
        5,
        4,
        3,
        3,
        1,
        2,
        2,
        0,
        0,
        8,
        0,
        0,
        0,
        0,
        0,
        0,
        0,
        0,
        0
      ],
      "WindowCenter": [
        -178.0,
        -226.0,
        -180.0,
        -154.0,
        -122.0,
        -118.0,
        -108.0,
        -194.0,
        -206.0,
        -186.0,
        -126.0,
        -80.0,
        -92.0,
        -80.0,
        -112.0,
        -130.0,
        -122.0,
        -258.0,
        -280.0,
        -280.0,
        -150.0,
        -248.0,
        -92.0,
        -242.0,
        -216.0,
        -210.0,
        -210.0,
        -212.0,
        -234.0,
        -214.0,
        -114.0,
        -140.0,
        -228.0,
        -106.0,
        -234.0,
        -90.0,
        -118.0,
        -120.0,
        -90.0,
        -126.0,
        -108.0,
        -106.0,
        -114.0,
        -186.0,
        -156.0,
        -168.0,
        -228.0,
        -238.0
      ],
      "WindowWidth": [
        5988.0,
        6020.0,
        6096.0,
        6064.0,
        6092.0,
        6152.0,
        6112.0,
        5986.0,
        5736.0,
        5582.0,
        5556.0,
        5546.0,
        5526.0,
        5556.0,
        5408.0,
        5408.0,
        5244.0,
        4596.0,
        4596.0,
        4594.0,
        5006.0,
        4580.0,
        5166.0,
        4580.0,
        4568.0,
        4578.0,
        4588.0,
        4594.0,
        4602.0,
        4596.0,
        5028.0,
        5020.0,
        4604.0,
        5160.0,
        4622.0,
        5336.0,
        5102.0,
        5262.0,
        5456.0,
        5528.0,
        5688.0,
        5706.0,
        5826.0,
        5896.0,
        5978.0,
        6014.0,
        6116.0,
        6104.0
      ]
    }
  }
}