{
  "AcquisitionMatrixPE": 96,
  "AcquisitionNumber": 1,
  "AcquisitionTime": "21:02:7.597500",
  "BandwidthPerPixelPhaseEncode": 18.939,
  "BaseResolution": 96,
  "BodyPartExamined": "BRAIN",
  "ConsistencyInfo": "N4_VE11C_LATEST_20160120",
  "ConversionSoftware": "dcm2niix",
  "ConversionSoftwareVersion": "v1.0.20190902",
  "DerivedVendorReportedEchoSpacing": 0.000550011,
  "DeviceSerialNumber": "66112",
  "DwellTime": 2.2e-06,
  "EchoTime": 0.033,
  "EchoTrainLength": 96,
  "EffectiveEchoSpacing": 0.000550011,
  "FlipAngle": 59,
  "ImageOrientationPatientDICOM": [0.998759, 0.0493732, -0.00657226, -0.0493717, 0.99878, 0.000394982],
  "ImageType": [
    "ORIGINAL",
    "PRIMARY",
    "FMRI",
    "NONE",
    "ND",
    "NORM",
    "MOSAIC"
],
  "ImagingFrequency": 123.252,
  "InPlanePhaseEncodingDirectionDICOM": "COL",
  "InstitutionAddress": "Maynard_3_Hanover_NH_US_03755",
  "InstitutionName": "Dartmouth_College_-_PBS",
  "InstitutionalDepartmentName": "Department",
  "MRAcquisitionType": "2D",
  "MagneticFieldStrength": 3,
  "Manufacturer": "Siemens",
  "ManufacturersModelName": "Prisma",
  "Modality": "MR",
  "MultibandAccelerationFactor": 4,
  "PartialFourier": 1,
  "PatientPosition": "HFS",
  "PercentPhaseFOV": 100,
  "PhaseEncodingDirection": "j-",
  "PhaseEncodingSteps": 96,
  "PhaseResolution": 1,
  "PixelBandwidth": 2365,
  "ProcedureStepDescription": "Gobbini_Matteo_1037_budapest",
  "ProtocolName": "func_run-05_task-movie",
  "PulseSequenceDetails": "%SiemensSeq%_ep2d_bold",
  "ReceiveCoilActiveElements": "HEA;HEP",
  "ReceiveCoilName": "Head_32",
  "ReconMatrixPE": 96,
  "RefLinesPE": 12,
  "RepetitionTime": 1,
  "SAR": 0.0562181,
  "ScanOptions": "FS",
  "ScanningSequence": "EP",
  "SequenceName": "_epfid2d1_96",
  "SequenceVariant": "SK",
  "SeriesDescription": "func_run-05_task-movie",
  "SeriesNumber": 36,
  "ShimSetting": [4140, -7723, -7260, 540, -50, -26, -25, 91],
  "SliceThickness": 2.5,
  "SliceTiming": [0.735, 0, 0.49, 0.0825, 0.5725, 0.1625, 0.6525, 0.3275, 0.8175, 0.4075, 0.8975, 0.245, 0.735, 0, 0.49, 0.0825, 0.5725, 0.1625, 0.6525, 0.3275, 0.8175, 0.4075, 0.8975, 0.245, 0.735, 0, 0.49, 0.0825, 0.5725, 0.1625, 0.6525, 0.3275, 0.8175, 0.4075, 0.8975, 0.245, 0.735, 0, 0.49, 0.0825, 0.5725, 0.1625, 0.6525, 0.3275, 0.8175, 0.4075, 0.8975, 0.245],
  "SoftwareVersions": "syngo_MR_E11",
  "SpacingBetweenSlices": 2.5,
  "StationName": "AWP66112",
  "TaskName": "movie",
  "TotalReadoutTime": 0.0522511,
  "TxRefAmp": 268.301,
  "dcmmeta_affine": [
    [-2.496896982192993, -0.12342917174100876, -0.016459370031952858, 130.53114318847656],
    [-0.12343299388885498, 2.496951103210449, 0.0001750205410644412, -100.1607666015625],
    [-0.016430655494332314, -0.000987455016002059, 2.499945878982544, -63.93528747558594],
    [0.0, 0.0, 0.0, 1.0]
],
  "dcmmeta_reorient_transform": [
    [0.0, -1.0, 0.0, 95.0],
    [1.0, 0.0, 0.0, 0.0],
    [0.0, 0.0, 1.0, 0.0],
    [0.0, 0.0, 0.0, 1.0]
],
  "dcmmeta_shape": [96, 96, 48, 803],
  "dcmmeta_slice_dim": 2,
  "dcmmeta_version": 0.6,
  "global": {
    "const": {
      "AccessionNumber": "A001107",
      "AcquisitionMatrix": [96, 0, 0, 96],
      "AngioFlag": "N",
      "BitsAllocated": 16,
      "BitsStored": 12,
      "BodyPartExamined": "BRAIN",
      "Columns": 672,
      "EchoNumbers": 1,
      "EchoTime": 33.0,
      "EchoTrainLength": 96,
      "FlipAngle": 59.0,
      "HighBit": 11,
      "ImageOrientationPatient": [0.99875877604274, 0.04937319768249, -0.0065722620324, -0.0493716673787, 0.99878039750961, 0.00039498201232],
      "ImagePositionPatient": [-802.36409660126, -891.72016768933, -59.581455266488],
      "ImageType": [
        "ORIGINAL",
        "PRIMARY",
        "FMRI",
        "NONE",
        "ND",
        "NORM",
        "MOSAIC"
],
      "ImagedNucleus": "1H",
      "ImagingFrequency": 123.252325,
      "InPlanePhaseEncodingDirection": "COL",
      "MRAcquisitionType": "2D",
      "MagneticFieldStrength": 3.0,
      "Manufacturer": "SIEMENS",
      "ManufacturerModelName": "Prisma",
      "Modality": "MR",
      "NumberOfAverages": 1.0,
      "NumberOfPhaseEncodingSteps": 96,
      "PercentPhaseFieldOfView": 100.0,
      "PercentSampling": 100.0,
      "PerformedProcedureStepStartTime": "200346.011000",
      "PhotometricInterpretation": "MONOCHROME2",
      "PixelBandwidth": 2365.0,
      "PixelRepresentation": 0,
      "PixelSpacing": [2.5, 2.5],
      "ProtocolName": "func_run-05_task-movie",
      "RepetitionTime": 1000.0,
      "Rows": 672,
      "SAR": 0.05621813776723,
      "SamplesPerPixel": 1,
      "ScanOptions": "FS",
      "ScanningSequence": "EP",
      "SequenceName": "*epfid2d1_96",
      "SequenceVariant": "SK",
      "SeriesDescription": "func_run-05_task-movie",
      "SeriesNumber": 36,
      "SeriesTime": "210209.214000",
      "SliceLocation": -64.800299091652,
      "SliceThickness": 2.5,
      "SmallestImagePixelValue": 0,
      "SoftwareVersions": "syngo MR E11",
      "SpacingBetweenSlices": 2.4999999714454,
      "SpecificCharacterSet": "ISO_IR 100",
      "StudyID": "1",
      "StudyTime": "200345.956000",
      "TransmitCoilName": "Body",
      "VariableFlipAngleFlag": "N",
      "WindowCenterWidthExplanation": "Algo1",
      "dBdt": 0.0},
    "slices": {}
  },
  "time": {
    "samples": {
      "AcquisitionNumber": [1, 2, 3, 4, 5, 6, 7, 8, 9, 10, 11, 12, 13, 14, 15, 16, 17, 18, 19, 20, 21, 22, 23, 24, 25, 26, 27, 28, 29, 30, 31, 32, 33, 34, 35, 36, 37, 38, 39, 40, 41, 42, 43, 44, 45, 46, 47, 48, 49, 50, 51, 52, 53, 54, 55, 56, 57, 58, 59, 60, 61, 62, 63, 64, 65, 66, 67, 68, 69, 70, 71, 72, 73, 74, 75, 76, 77, 78, 79, 80, 81, 82, 83, 84, 85, 86, 87, 88, 89, 90, 91, 92, 93, 94, 95, 96, 97, 98, 99, 100, 101, 102, 103, 104, 105, 106, 107, 108, 109, 110, 111, 112, 113, 114, 115, 116, 117, 118, 119, 120, 121, 122, 123, 124, 125, 126, 127, 128, 129, 130, 131, 132, 133, 134, 135, 136, 137, 138, 139, 140, 141, 142, 143, 144, 145, 146, 147, 148, 149, 150, 151, 152, 153, 154, 155, 156, 157, 158, 159, 160, 161, 162, 163, 164, 165, 166, 167, 168, 169, 170, 171, 172, 173, 174, 175, 176, 177, 178, 179, 180, 181, 182, 183, 184, 185, 186, 187, 188, 189, 190, 191, 192, 193, 194, 195, 196, 197, 198, 199, 200, 201, 202, 203, 204, 205, 206, 207, 208, 209, 210, 211, 212, 213, 214, 215, 216, 217, 218, 219, 220, 221, 222, 223, 224, 225, 226, 227, 228, 229, 230, 231, 232, 233, 234, 235, 236, 237, 238, 239, 240, 241, 242, 243, 244, 245, 246, 247, 248, 249, 250, 251, 252, 253, 254, 255, 256, 257, 258, 259, 260, 261, 262, 263, 264, 265, 266, 267, 268, 269, 270, 271, 272, 273, 274, 275, 276, 277, 278, 279, 280, 281, 282, 283, 284, 285, 286, 287, 288, 289, 290, 291, 292, 293, 294, 295, 296, 297, 298, 299, 300, 301, 302, 303, 304, 305, 306, 307, 308, 309, 310, 311, 312, 313, 314, 315, 316, 317, 318, 319, 320, 321, 322, 323, 324, 325, 326, 327, 328, 329, 330, 331, 332, 333, 334, 335, 336, 337, 338, 339, 340, 341, 342, 343, 344, 345, 346, 347, 348, 349, 350, 351, 352, 353, 354, 355, 356, 357, 358, 359, 360, 361, 362, 363, 364, 365, 366, 367, 368, 369, 370, 371, 372, 373, 374, 375, 376, 377, 378, 379, 380, 381, 382, 383, 384, 385, 386, 387, 388, 389, 390, 391, 392, 393, 394, 395, 396, 397, 398, 399, 400, 401, 402, 403, 404, 405, 406, 407, 408, 409, 410, 411, 412, 413, 414, 415, 416, 417, 418, 419, 420, 421, 422, 423, 424, 425, 426, 427, 428, 429, 430, 431, 432, 433, 434, 435, 436, 437, 438, 439, 440, 441, 442, 443, 444, 445, 446, 447, 448, 449, 450, 451, 452, 453, 454, 455, 456, 457, 458, 459, 460, 461, 462, 463, 464, 465, 466, 467, 468, 469, 470, 471, 472, 473, 474, 475, 476, 477, 478, 479, 480, 481, 482, 483, 484, 485, 486, 487, 488, 489, 490, 491, 492, 493, 494, 495, 496, 497, 498, 499, 500, 501, 502, 503, 504, 505, 506, 507, 508, 509, 510, 511, 512, 513, 514, 515, 516, 517, 518, 519, 520, 521, 522, 523, 524, 525, 526, 527, 528, 529, 530, 531, 532, 533, 534, 535, 536, 537, 538, 539, 540, 541, 542, 543, 544, 545, 546, 547, 548, 549, 550, 551, 552, 553, 554, 555, 556, 557, 558, 559, 560, 561, 562, 563, 564, 565, 566, 567, 568, 569, 570, 571, 572, 573, 574, 575, 576, 577, 578, 579, 580, 581, 582, 583, 584, 585, 586, 587, 588, 589, 590, 591, 592, 593, 594, 595, 596, 597, 598, 599, 600, 601, 602, 603, 604, 605, 606, 607, 608, 609, 610, 611, 612, 613, 614, 615, 616, 617, 618, 619, 620, 621, 622, 623, 624, 625, 626, 627, 628, 629, 630, 631, 632, 633, 634, 635, 636, 637, 638, 639, 640, 641, 642, 643, 644, 645, 646, 647, 648, 649, 650, 651, 652, 653, 654, 655, 656, 657, 658, 659, 660, 661, 662, 663, 664, 665, 666, 667, 668, 669, 670, 671, 672, 673, 674, 675, 676, 677, 678, 679, 680, 681, 682, 683, 684, 685, 686, 687, 688, 689, 690, 691, 692, 693, 694, 695, 696, 697, 698, 699, 700, 701, 702, 703, 704, 705, 706, 707, 708, 709, 710, 711, 712, 713, 714, 715, 716, 717, 718, 719, 720, 721, 722, 723, 724, 725, 726, 727, 728, 729, 730, 731, 732, 733, 734, 735, 736, 737, 738, 739, 740, 741, 742, 743, 744, 745, 746, 747, 748, 749, 750, 751, 752, 753, 754, 755, 756, 757, 758, 759, 760, 761, 762, 763, 764, 765, 766, 767, 768, 769, 770, 771, 772, 773, 774, 775, 776, 777, 778, 779, 780, 781, 782, 783, 784, 785, 786, 787, 788, 789, 790, 791, 792, 793, 794, 795, 796, 797, 798, 799, 800, 801, 802, 803],
      "AcquisitionTime": ["210207.597500", "210208.597500", "210209.597500", "210210.597500", "210211.597500", "210212.597500", "210213.597500", "210214.597500", "210215.597500", "210216.597500", "210217.597500", "210218.597500", "210219.597500", "210220.597500", "210221.597500", "210222.597500", "210223.597500", "210224.597500", "210225.597500", "210226.597500", "210227.597500", "210228.597500", "210229.597500", "210230.597500", "210231.597500", "210232.597500", "210233.597500", "210234.597500", "210235.597500", "210236.597500", "210237.597500", "210238.597500", "210239.597500", "210240.597500", "210241.597500", "210242.597500", "210243.597500", "210244.597500", "210245.597500", "210246.597500", "210247.597500", "210248.597500", "210249.597500", "210250.597500", "210251.597500", "210252.597500", "210253.597500", "210254.597500", "210255.597500", "210256.597500", "210257.597500", "210258.597500", "210259.597500", "210300.597500", "210301.597500", "210302.597500", "210303.597500", "210304.597500", "210305.597500", "210306.597500", "210307.597500", "210308.597500", "210309.597500", "210310.597500", "210311.597500", "210312.597500", "210313.597500", "210314.597500", "210315.597500", "210316.597500", "210317.597500", "210318.597500", "210319.597500", "210320.597500", "210321.597500", "210322.597500", "210323.597500", "210324.597500", "210325.597500", "210326.597500", "210327.597500", "210328.597500", "210329.597500", "210330.597500", "210331.597500", "210332.597500", "210333.597500", "210334.597500", "210335.597500", "210336.597500", "210337.597500", "210338.597500", "210339.597500", "210340.597500", "210341.597500", "210342.597500", "210343.597500", "210344.597500", "210345.597500", "210346.597500", "210347.597500", "210348.597500", "210349.597500", "210350.597500", "210351.597500", "210352.597500", "210353.597500", "210354.597500", "210355.597500", "210356.597500", "210357.597500", "210358.597500", "210359.597500", "210400.597500", "210401.597500", "210402.597500", "210403.597500", "210404.597500", "210405.597500", "210406.597500", "210407.597500", "210408.597500", "210409.597500", "210410.597500", "210411.597500", "210412.597500", "210413.597500", "210414.597500", "210415.597500", "210416.597500", "210417.597500", "210418.597500", "210419.597500", "210420.597500", "210421.597500", "210422.597500", "210423.597500", "210424.597500", "210425.597500", "210426.597500", "210427.597500", "210428.597500", "210429.597500", "210430.597500", "210431.597500", "210432.597500", "210433.597500", "210434.597500", "210435.597500", "210436.597500", "210437.597500", "210438.597500", "210439.597500", "210440.597500", "210441.597500", "210442.597500", "210443.597500", "210444.597500", "210445.597500", "210446.597500", "210447.597500", "210448.597500", "210449.597500", "210450.597500", "210451.597500", "210452.597500", "210453.597500", "210454.597500", "210455.597500", "210456.597500", "210457.597500", "210458.597500", "210459.597500", "210500.597500", "210501.597500", "210502.597500", "210503.597500", "210504.597500", "210505.597500", "210506.597500", "210507.597500", "210508.597500", "210509.597500", "210510.597500", "210511.597500", "210512.597500", "210513.597500", "210514.597500", "210515.597500", "210516.597500", "210517.597500", "210518.597500", "210519.597500", "210520.597500", "210521.597500", "210522.597500", "210523.597500", "210524.597500", "210525.597500", "210526.597500", "210527.597500", "210528.597500", "210529.597500", "210530.597500", "210531.597500", "210532.597500", "210533.597500", "210534.597500", "210535.597500", "210536.597500", "210537.597500", "210538.597500", "210539.597500", "210540.597500", "210541.597500", "210542.597500", "210543.597500", "210544.597500", "210545.597500", "210546.597500", "210547.597500", "210548.597500", "210549.597500", "210550.597500", "210551.597500", "210552.597500", "210553.597500", "210554.597500", "210555.597500", "210556.597500", "210557.597500", "210558.597500", "210559.597500", "210600.597500", "210601.597500", "210602.597500", "210603.597500", "210604.597500", "210605.597500", "210606.597500", "210607.597500", "210608.597500", "210609.597500", "210610.597500", "210611.597500", "210612.597500", "210613.597500", "210614.597500", "210615.597500", "210616.597500", "210617.597500", "210618.597500", "210619.597500", "210620.597500", "210621.597500", "210622.597500", "210623.597500", "210624.597500", "210625.597500", "210626.597500", "210627.597500", "210628.597500", "210629.597500", "210630.597500", "210631.597500", "210632.597500", "210633.597500", "210634.597500", "210635.597500", "210636.597500", "210637.597500", "210638.597500", "210639.597500", "210640.597500", "210641.597500", "210642.597500", "210643.597500", "210644.597500", "210645.597500", "210646.597500", "210647.597500", "210648.597500", "210649.597500", "210650.597500", "210651.597500", "210652.597500", "210653.597500", "210654.597500", "210655.597500", "210656.597500", "210657.597500", "210658.597500", "210659.597500", "210700.597500", "210701.597500", "210702.597500", "210703.597500", "210704.597500", "210705.597500", "210706.597500", "210707.597500", "210708.597500", "210709.597500", "210710.597500", "210711.597500", "210712.597500", "210713.597500", "210714.597500", "210715.597500", "210716.597500", "210717.597500", "210718.597500", "210719.597500", "210720.597500", "210721.597500", "210722.597500", "210723.597500", "210724.597500", "210725.597500", "210726.597500", "210727.597500", "210728.597500", "210729.597500", "210730.597500", "210731.597500", "210732.597500", "210733.597500", "210734.597500", "210735.597500", "210736.597500", "210737.597500", "210738.597500", "210739.597500", "210740.597500", "210741.597500", "210742.597500", "210743.597500", "210744.597500", "210745.597500", "210746.597500", "210747.597500", "210748.597500", "210749.597500", "210750.597500", "210751.597500", "210752.597500", "210753.597500", "210754.597500", "210755.597500", "210756.597500", "210757.597500", "210758.597500", "210759.597500", "210800.597500", "210801.597500", "210802.597500", "210803.597500", "210804.597500", "210805.597500", "210806.597500", "210807.597500", "210808.597500", "210809.597500", "210810.597500", "210811.597500", "210812.597500", "210813.597500", "210814.597500", "210815.597500", "210816.597500", "210817.597500", "210818.597500", "210819.597500", "210820.597500", "210821.597500", "210822.597500", "210823.597500", "210824.597500", "210825.597500", "210826.597500", "210827.597500", "210828.597500", "210829.597500", "210830.597500", "210831.597500", "210832.597500", "210833.597500", "210834.597500", "210835.597500", "210836.597500", "210837.597500", "210838.597500", "210839.597500", "210840.597500", "210841.597500", "210842.597500", "210843.597500", "210844.597500", "210845.597500", "210846.597500", "210847.597500", "210848.597500", "210849.597500", "210850.597500", "210851.597500", "210852.597500", "210853.597500", "210854.597500", "210855.597500", "210856.597500", "210857.597500", "210858.597500", "210859.597500", "210900.597500", "210901.597500", "210902.597500", "210903.597500", "210904.597500", "210905.597500", "210906.597500", "210907.597500", "210908.597500", "210909.597500", "210910.597500", "210911.597500", "210912.597500", "210913.597500", "210914.597500", "210915.597500", "210916.597500", "210917.597500", "210918.597500", "210919.597500", "210920.597500", "210921.597500", "210922.597500", "210923.597500", "210924.597500", "210925.597500", "210926.597500", "210927.597500", "210928.597500", "210929.597500", "210930.597500", "210931.597500", "210932.597500", "210933.597500", "210934.597500", "210935.597500", "210936.597500", "210937.597500", "210938.597500", "210939.597500", "210940.597500", "210941.597500", "210942.597500", "210943.597500", "210944.597500", "210945.597500", "210946.597500", "210947.597500", "210948.597500", "210949.597500", "210950.597500", "210951.597500", "210952.597500", "210953.597500", "210954.597500", "210955.597500", "210956.597500", "210957.597500", "210958.597500", "210959.597500", "211000.597500", "211001.597500", "211002.597500", "211003.597500", "211004.597500", "211005.597500", "211006.597500", "211007.597500", "211008.597500", "211009.597500", "211010.597500", "211011.597500", "211012.597500", "211013.597500", "211014.597500", "211015.597500", "211016.597500", "211017.597500", "211018.597500", "211019.597500", "211020.597500", "211021.597500", "211022.597500", "211023.597500", "211024.597500", "211025.597500", "211026.597500", "211027.597500", "211028.597500", "211029.597500", "211030.597500", "211031.597500", "211032.597500", "211033.597500", "211034.597500", "211035.597500", "211036.597500", "211037.597500", "211038.597500", "211039.597500", "211040.597500", "211041.597500", "211042.597500", "211043.597500", "211044.597500", "211045.597500", "211046.597500", "211047.597500", "211048.597500", "211049.597500", "211050.597500", "211051.597500", "211052.597500", "211053.597500", "211054.597500", "211055.597500", "211056.597500", "211057.597500", "211058.597500", "211059.597500", "211100.597500", "211101.597500", "211102.597500", "211103.597500", "211104.597500", "211105.597500", "211106.597500", "211107.597500", "211108.597500", "211109.597500", "211110.597500", "211111.597500", "211112.597500", "211113.597500", "211114.597500", "211115.597500", "211116.597500", "211117.597500", "211118.597500", "211119.597500", "211120.597500", "211121.597500", "211122.597500", "211123.597500", "211124.597500", "211125.597500", "211126.597500", "211127.597500", "211128.597500", "211129.597500", "211130.597500", "211131.597500", "211132.597500", "211133.597500", "211134.597500", "211135.597500", "211136.597500", "211137.597500", "211138.597500", "211139.597500", "211140.597500", "211141.597500", "211142.597500", "211143.597500", "211144.597500", "211145.597500", "211146.597500", "211147.597500", "211148.597500", "211149.597500", "211150.597500", "211151.597500", "211152.597500", "211153.597500", "211154.597500", "211155.597500", "211156.597500", "211157.597500", "211158.597500", "211159.597500", "211200.597500", "211201.597500", "211202.597500", "211203.597500", "211204.597500", "211205.597500", "211206.597500", "211207.597500", "211208.597500", "211209.597500", "211210.597500", "211211.597500", "211212.597500", "211213.597500", "211214.597500", "211215.597500", "211216.597500", "211217.597500", "211218.597500", "211219.597500", "211220.597500", "211221.597500", "211222.597500", "211223.597500", "211224.597500", "211225.597500", "211226.597500", "211227.597500", "211228.597500", "211229.597500", "211230.597500", "211231.597500", "211232.597500", "211233.597500", "211234.597500", "211235.597500", "211236.597500", "211237.597500", "211238.597500", "211239.597500", "211240.597500", "211241.597500", "211242.597500", "211243.597500", "211244.597500", "211245.597500", "211246.597500", "211247.597500", "211248.597500", "211249.597500", "211250.597500", "211251.597500", "211252.597500", "211253.597500", "211254.597500", "211255.597500", "211256.597500", "211257.597500", "211258.597500", "211259.597500", "211300.597500", "211301.597500", "211302.597500", "211303.597500", "211304.597500", "211305.597500", "211306.597500", "211307.597500", "211308.597500", "211309.597500", "211310.597500", "211311.597500", "211312.597500", "211313.597500", "211314.597500", "211315.597500", "211316.597500", "211317.597500", "211318.597500", "211319.597500", "211320.597500", "211321.597500", "211322.597500", "211323.597500", "211324.597500", "211325.597500", "211326.597500", "211327.597500", "211328.597500", "211329.597500", "211330.597500", "211331.597500", "211332.597500", "211333.597500", "211334.597500", "211335.597500", "211336.597500", "211337.597500", "211338.597500", "211339.597500", "211340.597500", "211341.597500", "211342.597500", "211343.597500", "211344.597500", "211345.597500", "211346.597500", "211347.597500", "211348.597500", "211349.597500", "211350.597500", "211351.597500", "211352.597500", "211353.597500", "211354.597500", "211355.597500", "211356.597500", "211357.597500", "211358.597500", "211359.597500", "211400.597500", "211401.597500", "211402.597500", "211403.597500", "211404.597500", "211405.597500", "211406.597500", "211407.597500", "211408.597500", "211409.597500", "211410.597500", "211411.597500", "211412.597500", "211413.597500", "211414.597500", "211415.597500", "211416.597500", "211417.597500", "211418.597500", "211419.597500", "211420.597500", "211421.597500", "211422.597500", "211423.597500", "211424.597500", "211425.597500", "211426.597500", "211427.597500", "211428.597500", "211429.597500", "211430.597500", "211431.597500", "211432.597500", "211433.597500", "211434.597500", "211435.597500", "211436.597500", "211437.597500", "211438.597500", "211439.597500", "211440.597500", "211441.597500", "211442.597500", "211443.597500", "211444.597500", "211445.597500", "211446.597500", "211447.597500", "211448.597500", "211449.597500", "211450.597500", "211451.597500", "211452.597500", "211453.597500", "211454.597500", "211455.597500", "211456.597500", "211457.597500", "211458.597500", "211459.597500", "211500.597500", "211501.597500", "211502.597500", "211503.597500", "211504.597500", "211505.597500", "211506.597500", "211507.597500", "211508.597500", "211509.597500", "211510.597500", "211511.597500", "211512.597500", "211513.597500", "211514.597500", "211515.597500", "211516.597500", "211517.597500", "211518.597500", "211519.597500", "211520.597500", "211521.597500", "211522.597500", "211523.597500", "211524.597500", "211525.597500", "211526.597500", "211527.597500", "211528.597500", "211529.597500"],
