{
  "AcquisitionMatrixPE": 96,
  "AcquisitionNumber": 1,
  "AcquisitionTime": "20:41:29.785000",
  "BandwidthPerPixelPhaseEncode": 18.939,
  "BaseResolution": 96,
  "BodyPartExamined": "BRAIN",
  "ConsistencyInfo": "N4_VE11C_LATEST_20160120",
  "ConversionSoftware": "dcm2niix",
  "ConversionSoftwareVersion": "v1.0.20190902",
  "DerivedVendorReportedEchoSpacing": 0.000550011,
  "DeviceSerialNumber": "66112",
  "DwellTime": 2.2e-06,
  "EchoTime": 0.033,
  "EchoTrainLength": 96,
  "EffectiveEchoSpacing": 0.000550011,
  "FlipAngle": 59,
  "ImageOrientationPatientDICOM": [0.998759, 0.0493732, -0.00657226, -0.0493717, 0.99878, 0.000394982],
  "ImageType": [
    "ORIGINAL",
    "PRIMARY",
    "FMRI",
    "NONE",
    "ND",
    "NORM",
    "MOSAIC"
],
  "ImagingFrequency": 123.252,
  "InPlanePhaseEncodingDirectionDICOM": "COL",
  "InstitutionAddress": "Maynard_3_Hanover_NH_US_03755",
  "InstitutionName": "Dartmouth_College_-_PBS",
  "InstitutionalDepartmentName": "Department",
  "MRAcquisitionType": "2D",
  "MagneticFieldStrength": 3,
  "Manufacturer": "Siemens",
  "ManufacturersModelName": "Prisma",
  "Modality": "MR",
  "MultibandAccelerationFactor": 4,
  "PartialFourier": 1,
  "PatientPosition": "HFS",
  "PercentPhaseFOV": 100,
  "PhaseEncodingDirection": "j-",
  "PhaseEncodingSteps": 96,
  "PhaseResolution": 1,
  "PixelBandwidth": 2365,
  "ProcedureStepDescription": "Gobbini_Matteo_1037_budapest",
  "ProtocolName": "func_run-03_task-movie",
  "PulseSequenceDetails": "%SiemensSeq%_ep2d_bold",
  "ReceiveCoilActiveElements": "HEA;HEP",
  "ReceiveCoilName": "Head_32",
  "ReconMatrixPE": 96,
  "RefLinesPE": 12,
  "RepetitionTime": 1,
  "SAR": 0.0561048,
  "ScanOptions": "FS",
  "ScanningSequence": "EP",
  "SequenceName": "_epfid2d1_96",
  "SequenceVariant": "SK",
  "SeriesDescription": "func_run-03_task-movie",
  "SeriesNumber": 22,
  "ShimSetting": [4140, -7723, -7260, 540, -50, -26, -25, 91],
  "SliceThickness": 2.5,
  "SliceTiming": [0.735, 0, 0.49, 0.0825, 0.5725, 0.165, 0.655, 0.3275, 0.8175, 0.41, 0.9, 0.245, 0.735, 0, 0.49, 0.0825, 0.5725, 0.165, 0.655, 0.3275, 0.8175, 0.41, 0.9, 0.245, 0.735, 0, 0.49, 0.0825, 0.5725, 0.165, 0.655, 0.3275, 0.8175, 0.41, 0.9, 0.245, 0.735, 0, 0.49, 0.0825, 0.5725, 0.165, 0.655, 0.3275, 0.8175, 0.41, 0.9, 0.245],
  "SoftwareVersions": "syngo_MR_E11",
  "SpacingBetweenSlices": 2.5,
  "StationName": "AWP66112",
  "TaskName": "movie",
  "TotalReadoutTime": 0.0522511,
  "TxRefAmp": 268.301,
  "dcmmeta_affine": [
    [-2.496896982192993, -0.12342917174100876, -0.016459370031952858, 130.53114318847656],
    [-0.12343299388885498, 2.496951103210449, 0.0001750205410644412, -100.1607666015625],
    [-0.016430655494332314, -0.000987455016002059, 2.499945878982544, -63.93528747558594],
    [0.0, 0.0, 0.0, 1.0]
],
  "dcmmeta_reorient_transform": [
    [0.0, -1.0, 0.0, 95.0],
    [1.0, 0.0, 0.0, 0.0],
    [0.0, 0.0, 1.0, 0.0],
    [0.0, 0.0, 0.0, 1.0]
],
  "dcmmeta_shape": [96, 96, 48, 535],
  "dcmmeta_slice_dim": 2,
  "dcmmeta_version": 0.6,
  "global": {
    "const": {
      "AccessionNumber": "A001107",
      "AcquisitionMatrix": [96, 0, 0, 96],
      "AngioFlag": "N",
      "BitsAllocated": 16,
      "BitsStored": 12,
      "BodyPartExamined": "BRAIN",
      "Columns": 672,
      "EchoNumbers": 1,
      "EchoTime": 33.0,
      "EchoTrainLength": 96,
      "FlipAngle": 59.0,
      "HighBit": 11,
      "ImageOrientationPatient": [0.99875877604274, 0.04937319768249, -0.0065722620324, -0.0493716673787, 0.99878039750961, 0.00039498201232],
      "ImagePositionPatient": [-802.36409660126, -891.72016768933, -59.581455266488],
      "ImageType": [
        "ORIGINAL",
        "PRIMARY",
        "FMRI",
        "NONE",
        "ND",
        "NORM",
        "MOSAIC"
],
      "ImagedNucleus": "1H",
      "ImagingFrequency": 123.252317,
      "InPlanePhaseEncodingDirection": "COL",
      "MRAcquisitionType": "2D",
      "MagneticFieldStrength": 3.0,
      "Manufacturer": "SIEMENS",
      "ManufacturerModelName": "Prisma",
      "Modality": "MR",
      "NumberOfAverages": 1.0,
      "NumberOfPhaseEncodingSteps": 96,
      "PercentPhaseFieldOfView": 100.0,
      "PercentSampling": 100.0,
      "PerformedProcedureStepStartTime": "200346.011000",
      "PhotometricInterpretation": "MONOCHROME2",
      "PixelBandwidth": 2365.0,
      "PixelRepresentation": 0,
      "PixelSpacing": [2.5, 2.5],
      "ProtocolName": "func_run-03_task-movie",
      "RepetitionTime": 1000.0,
      "Rows": 672,
      "SAR": 0.05610475179852,
      "SamplesPerPixel": 1,
      "ScanOptions": "FS",
      "ScanningSequence": "EP",
      "SequenceName": "*epfid2d1_96",
      "SequenceVariant": "SK",
      "SeriesDescription": "func_run-03_task-movie",
      "SeriesNumber": 22,
      "SeriesTime": "204130.732000",
      "SliceLocation": -64.800299091652,
      "SliceThickness": 2.5,
      "SmallestImagePixelValue": 0,
      "SoftwareVersions": "syngo MR E11",
      "SpacingBetweenSlices": 2.4999999714454,
      "SpecificCharacterSet": "ISO_IR 100",
      "StudyID": "1",
      "StudyTime": "200345.956000",
      "TransmitCoilName": "Body",
      "VariableFlipAngleFlag": "N",
      "WindowCenterWidthExplanation": "Algo1",
      "dBdt": 0.0},
    "slices": {}
  },
  "time": {
    "samples": {
      "AcquisitionNumber": [1, 2, 3, 4, 5, 6, 7, 8, 9, 10, 11, 12, 13, 14, 15, 16, 17, 18, 19, 20, 21, 22, 23, 24, 25, 26, 27, 28, 29, 30, 31, 32, 33, 34, 35, 36, 37, 38, 39, 40, 41, 42, 43, 44, 45, 46, 47, 48, 49, 50, 51, 52, 53, 54, 55, 56, 57, 58, 59, 60, 61, 62, 63, 64, 65, 66, 67, 68, 69, 70, 71, 72, 73, 74, 75, 76, 77, 78, 79, 80, 81, 82, 83, 84, 85, 86, 87, 88, 89, 90, 91, 92, 93, 94, 95, 96, 97, 98, 99, 100, 101, 102, 103, 104, 105, 106, 107, 108, 109, 110, 111, 112, 113, 114, 115, 116, 117, 118, 119, 120, 121, 122, 123, 124, 125, 126, 127, 128, 129, 130, 131, 132, 133, 134, 135, 136, 137, 138, 139, 140, 141, 142, 143, 144, 145, 146, 147, 148, 149, 150, 151, 152, 153, 154, 155, 156, 157, 158, 159, 160, 161, 162, 163, 164, 165, 166, 167, 168, 169, 170, 171, 172, 173, 174, 175, 176, 177, 178, 179, 180, 181, 182, 183, 184, 185, 186, 187, 188, 189, 190, 191, 192, 193, 194, 195, 196, 197, 198, 199, 200, 201, 202, 203, 204, 205, 206, 207, 208, 209, 210, 211, 212, 213, 214, 215, 216, 217, 218, 219, 220, 221, 222, 223, 224, 225, 226, 227, 228, 229, 230, 231, 232, 233, 234, 235, 236, 237, 238, 239, 240, 241, 242, 243, 244, 245, 246, 247, 248, 249, 250, 251, 252, 253, 254, 255, 256, 257, 258, 259, 260, 261, 262, 263, 264, 265, 266, 267, 268, 269, 270, 271, 272, 273, 274, 275, 276, 277, 278, 279, 280, 281, 282, 283, 284, 285, 286, 287, 288, 289, 290, 291, 292, 293, 294, 295, 296, 297, 298, 299, 300, 301, 302, 303, 304, 305, 306, 307, 308, 309, 310, 311, 312, 313, 314, 315, 316, 317, 318, 319, 320, 321, 322, 323, 324, 325, 326, 327, 328, 329, 330, 331, 332, 333, 334, 335, 336, 337, 338, 339, 340, 341, 342, 343, 344, 345, 346, 347, 348, 349, 350, 351, 352, 353, 354, 355, 356, 357, 358, 359, 360, 361, 362, 363, 364, 365, 366, 367, 368, 369, 370, 371, 372, 373, 374, 375, 376, 377, 378, 379, 380, 381, 382, 383, 384, 385, 386, 387, 388, 389, 390, 391, 392, 393, 394, 395, 396, 397, 398, 399, 400, 401, 402, 403, 404, 405, 406, 407, 408, 409, 410, 411, 412, 413, 414, 415, 416, 417, 418, 419, 420, 421, 422, 423, 424, 425, 426, 427, 428, 429, 430, 431, 432, 433, 434, 435, 436, 437, 438, 439, 440, 441, 442, 443, 444, 445, 446, 447, 448, 449, 450, 451, 452, 453, 454, 455, 456, 457, 458, 459, 460, 461, 462, 463, 464, 465, 466, 467, 468, 469, 470, 471, 472, 473, 474, 475, 476, 477, 478, 479, 480, 481, 482, 483, 484, 485, 486, 487, 488, 489, 490, 491, 492, 493, 494, 495, 496, 497, 498, 499, 500, 501, 502, 503, 504, 505, 506, 507, 508, 509, 510, 511, 512, 513, 514, 515, 516, 517, 518, 519, 520, 521, 522, 523, 524, 525, 526, 527, 528, 529, 530, 531, 532, 533, 534, 535],
      "AcquisitionTime": ["204129.785000", "204130.785000", "204131.785000", "204132.785000", "204133.785000", "204134.785000", "204135.785000", "204136.785000", "204137.785000", "204138.785000", "204139.785000", "204140.785000", "204141.785000", "204142.785000", "204143.785000", "204144.785000", "204145.785000", "204146.785000", "204147.785000", "204148.785000", "204149.785000", "204150.785000", "204151.785000", "204152.785000", "204153.785000", "204154.785000", "204155.785000", "204156.785000", "204157.785000", "204158.785000", "204159.785000", "204200.785000", "204201.785000", "204202.785000", "204203.785000", "204204.785000", "204205.785000", "204206.785000", "204207.785000", "204208.785000", "204209.785000", "204210.785000", "204211.785000", "204212.785000", "204213.785000", "204214.785000", "204215.785000", "204216.785000", "204217.785000", "204218.785000", "204219.785000", "204220.785000", "204221.785000", "204222.785000", "204223.785000", "204224.785000", "204225.785000", "204226.785000", "204227.785000", "204228.785000", "204229.785000", "204230.785000", "204231.785000", "204232.785000", "204233.785000", "204234.785000", "204235.785000", "204236.785000", "204237.785000", "204238.785000", "204239.785000", "204240.785000", "204241.785000", "204242.785000", "204243.785000", "204244.785000", "204245.785000", "204246.785000", "204247.785000", "204248.785000", "204249.785000", "204250.785000", "204251.785000", "204252.785000", "204253.785000", "204254.785000", "204255.785000", "204256.785000", "204257.785000", "204258.785000", "204259.785000", "204300.785000", "204301.785000", "204302.785000", "204303.785000", "204304.785000", "204305.785000", "204306.785000", "204307.785000", "204308.785000", "204309.785000", "204310.785000", "204311.785000", "204312.785000", "204313.785000", "204314.785000", "204315.785000", "204316.785000", "204317.785000", "204318.785000", "204319.785000", "204320.785000", "204321.785000", "204322.785000", "204323.785000", "204324.785000", "204325.785000", "204326.785000", "204327.785000", "204328.785000", "204329.785000", "204330.785000", "204331.785000", "204332.785000", "204333.785000", "204334.785000", "204335.785000", "204336.785000", "204337.785000", "204338.785000", "204339.785000", "204340.785000", "204341.785000", "204342.785000", "204343.785000", "204344.785000", "204345.785000", "204346.785000", "204347.785000", "204348.785000", "204349.785000", "204350.785000", "204351.785000", "204352.785000", "204353.785000", "204354.785000", "204355.785000", "204356.785000", "204357.785000", "204358.785000", "204359.785000", "204400.785000", "204401.785000", "204402.785000", "204403.785000", "204404.785000", "204405.785000", "204406.785000", "204407.785000", "204408.785000", "204409.785000", "204410.785000", "204411.785000", "204412.785000", "204413.785000", "204414.785000", "204415.785000", "204416.785000", "204417.785000", "204418.785000", "204419.785000", "204420.785000", "204421.785000", "204422.785000", "204423.785000", "204424.785000", "204425.785000", "204426.785000", "204427.785000", "204428.785000", "204429.785000", "204430.785000", "204431.785000", "204432.785000", "204433.785000", "204434.785000", "204435.785000", "204436.785000", "204437.785000", "204438.785000", "204439.785000", "204440.785000", "204441.785000", "204442.785000", "204443.785000", "204444.785000", "204445.785000", "204446.785000", "204447.785000", "204448.785000", "204449.785000", "204450.785000", "204451.785000", "204452.785000", "204453.785000", "204454.785000", "204455.785000", "204456.785000", "204457.785000", "204458.785000", "204459.785000", "204500.785000", "204501.785000", "204502.785000", "204503.785000", "204504.785000", "204505.785000", "204506.785000", "204507.785000", "204508.785000", "204509.785000", "204510.785000", "204511.785000", "204512.785000", "204513.785000", "204514.785000", "204515.785000", "204516.785000", "204517.785000", "204518.785000", "204519.785000", "204520.785000", "204521.785000", "204522.785000", "204523.785000", "204524.785000", "204525.785000", "204526.785000", "204527.785000", "204528.785000", "204529.785000", "204530.785000", "204531.785000", "204532.785000", "204533.785000", "204534.785000", "204535.785000", "204536.785000", "204537.785000", "204538.785000", "204539.785000", "204540.785000", "204541.785000", "204542.785000", "204543.785000", "204544.785000", "204545.785000", "204546.785000", "204547.785000", "204548.785000", "204549.785000", "204550.785000", "204551.785000", "204552.785000", "204553.785000", "204554.785000", "204555.785000", "204556.785000", "204557.785000", "204558.785000", "204559.785000", "204600.785000", "204601.785000", "204602.785000", "204603.785000", "204604.785000", "204605.785000", "204606.785000", "204607.785000", "204608.785000", "204609.785000", "204610.785000", "204611.785000", "204612.785000", "204613.785000", "204614.785000", "204615.785000", "204616.785000", "204617.785000", "204618.785000", "204619.785000", "204620.785000", "204621.785000", "204622.785000", "204623.785000", "204624.785000", "204625.785000", "204626.785000", "204627.785000", "204628.785000", "204629.785000", "204630.785000", "204631.785000", "204632.785000", "204633.785000", "204634.785000", "204635.785000", "204636.785000", "204637.785000", "204638.785000", "204639.785000", "204640.785000", "204641.785000", "204642.785000", "204643.785000", "204644.785000", "204645.785000", "204646.785000", "204647.785000", "204648.785000", "204649.785000", "204650.785000", "204651.785000", "204652.785000", "204653.785000", "204654.785000", "204655.785000", "204656.785000", "204657.785000", "204658.785000", "204659.785000", "204700.785000", "204701.785000", "204702.785000", "204703.785000", "204704.785000", "204705.785000", "204706.785000", "204707.785000", "204708.785000", "204709.785000", "204710.785000", "204711.785000", "204712.785000", "204713.785000", "204714.785000", "204715.785000", "204716.785000", "204717.785000", "204718.785000", "204719.785000", "204720.785000", "204721.785000", "204722.785000", "204723.785000", "204724.785000", "204725.785000", "204726.785000", "204727.785000", "204728.785000", "204729.785000", "204730.785000", "204731.785000", "204732.785000", "204733.785000", "204734.785000", "204735.785000", "204736.785000", "204737.785000", "204738.785000", "204739.785000", "204740.785000", "204741.785000", "204742.785000", "204743.785000", "204744.785000", "204745.785000", "204746.785000", "204747.785000", "204748.785000", "204749.785000", "204750.785000", "204751.785000", "204752.785000", "204753.785000", "204754.785000", "204755.785000", "204756.785000", "204757.785000", "204758.785000", "204759.785000", "204800.785000", "204801.785000", "204802.785000", "204803.785000", "204804.785000", "204805.785000", "204806.785000", "204807.785000", "204808.785000", "204809.785000", "204810.785000", "204811.785000", "204812.785000", "204813.785000", "204814.785000", "204815.785000", "204816.785000", "204817.785000", "204818.785000", "204819.785000", "204820.785000", "204821.785000", "204822.785000", "204823.785000", "204824.785000", "204825.785000", "204826.785000", "204827.785000", "204828.785000", "204829.785000", "204830.785000", "204831.785000", "204832.785000", "204833.785000", "204834.785000", "204835.785000", "204836.785000", "204837.785000", "204838.785000", "204839.785000", "204840.785000", "204841.785000", "204842.785000", "204843.785000", "204844.785000", "204845.785000", "204846.785000", "204847.785000", "204848.785000", "204849.785000", "204850.785000", "204851.785000", "204852.785000", "204853.785000", "204854.785000", "204855.785000", "204856.785000", "204857.785000", "204858.785000", "204859.785000", "204900.785000", "204901.785000", "204902.785000", "204903.785000", "204904.785000", "204905.785000", "204906.785000", "204907.785000", "204908.785000", "204909.785000", "204910.785000", "204911.785000", "204912.785000", "204913.785000", "204914.785000", "204915.785000", "204916.785000", "204917.785000", "204918.785000", "204919.785000", "204920.785000", "204921.785000", "204922.785000", "204923.785000", "204924.785000", "204925.785000", "204926.785000", "204927.785000", "204928.785000", "204929.785000", "204930.785000", "204931.785000", "204932.785000", "204933.785000", "204934.785000", "204935.785000", "204936.785000", "204937.785000", "204938.785000", "204939.785000", "204940.785000", "204941.785000", "204942.785000", "204943.785000", "204944.785000", "204945.785000", "204946.785000", "204947.785000", "204948.785000", "204949.785000", "204950.785000", "204951.785000", "204952.785000", "204953.785000", "204954.785000", "204955.785000", "204956.785000", "204957.785000", "204958.785000", "204959.785000", "205000.785000", "205001.785000", "205002.785000", "205003.785000", "205004.785000", "205005.785000", "205006.785000", "205007.785000", "205008.785000", "205009.785000", "205010.785000", "205011.785000", "205012.785000", "205013.785000", "205014.785000", "205015.785000", "205016.785000", "205017.785000", "205018.785000", "205019.785000", "205020.785000", "205021.785000", "205022.785000", "205023.785000"],
      "ContentTime": ["204130.736000", "204131.588000", "204132.581000", "204133.602000", "204134.590000", "204135.593000", "204136.595000", "204137.572000", "204138.628000", "204139.627000", "204140.575000", "204141.640000", "204142.578000", "204143.574000", "204144.581000", "204145.602000", "204146.589000", "204147.600000", "204148.616000", "204149.588000", "204150.562000", "204151.615000", "204152.584000", "204153.590000", "204154.572000", "204155.581000", "204156.584000", "204157.585000", "204158.604000", "204159.577000", "204200.671000", "204201.569000", "204202.582000", "204203.619000", "204204.576000", "204205.572000", "204206.587000", "204207.580000", "204208.625000", "204209.632000", "204210.618000", "204211.574000", "204212.567000", "204213.561000", "204214.578000", "204215.581000", "204216.592000", "204217.618000", "204218.575000", "204219.565000", "204220.585000", "204221.592000", "204222.628000", "204223.574000", "204224.596000", "204225.603000", "204226.593000", "204227.580000", "204228.571000", "204229.563000", "204230.575000", "204231.587000", "204232.598000", "204233.580000", "204234.601000", "204235.586000", "204236.576000", "204237.568000", "204238.587000", "204239.600000", "204240.595000", "204241.609000", "204242.589000", "204243.570000", "204244.582000", "204245.604000", "204246.596000", "204247.578000", "204248.589000", "204249.598000", "204250.595000", "204251.608000", "204252.576000", "204253.615000", "204254.581000", "204255.581000", "204256.563000", "204257.570000", "204258.579000", "204259.585000", "204300.570000", "204301.559000", "204302.581000", "204303.580000", "204304.565000", "204305.601000", "204306.579000", "204307.571000", "204308.574000", "204309.622000", "204310.587000", "204311.583000", "204312.588000", "204313.625000", "204314.596000", "204315.589000", "204316.600000", "204317.620000", "204318.570000", "204319.585000", "204320.572000", "204321.587000", "204322.590000", "204323.584000", "204324.580000", "204325.597000", "204326.577000", "204327.588000", "204328.671000", "204329.596000", "204330.576000", "204331.597000", "204332.572000", "204333.593000", "204334.591000", "204335.585000", "204336.580000", "204337.579000", "204338.572000", "204339.591000", "204340.588000", "204341.590000", "204342.599000", "204343.582000", "204344.596000", "204345.599000", "204346.602000", "204347.585000", "204348.599000", "204349.604000", "204350.586000", "204351.598000", "204352.592000", "204353.590000", "204354.596000", "204355.592000", "204356.586000", "204357.569000", "204358.596000", "204359.586000", "204400.609000", "204401.585000", "204402.576000", "204403.576000", "204404.587000", "204405.586000", "204406.569000", "204407.595000", "204408.603000", "204409.595000", "204410.597000", "204411.624000", "204412.587000", "204413.626000", "204414.586000", "204415.574000", "204416.574000", "204417.574000", "204418.590000", "204419.591000", "204420.584000", "204421.630000", "204422.595000", "204423.565000", "204424.591000", "204425.581000", "204426.576000", "204427.616000", "204428.600000", "204429.588000", "204430.579000", "204431.614000", "204432.590000", "204433.587000", "204434.652000", "204435.578000", "204436.587000", "204437.571000", "204438.578000", "204439.611000", "204440.602000", "204441.583000", "204442.575000", "204443.589000", "204444.616000", "204445.603000", "204446.576000", "204447.581000", "204448.592000", "204449.581000", "204450.591000", "204451.584000", "204452.632000", "204453.598000", "204454.573000", "204455.579000", "204456.588000", "204457.586000", "204458.571000", "204459.600000", "204500.609000", "204501.586000", "204502.618000", "204503.576000", "204504.577000", "204505.594000", "204506.587000", "204507.657000", "204508.594000", "204509.581000", "204510.592000", "204511.599000", "204512.577000", "204513.561000", "204514.601000", "204515.596000", "204516.582000", "204517.639000", "204518.588000", "204519.580000", "204520.571000", "204521.590000", "204522.590000", "204523.586000", "204524.604000", "204525.598000", "204526.599000", "204527.608000", "204528.585000", "204529.595000", "204530.574000", "204531.584000", "204532.610000", "204533.578000", "204534.585000", "204535.612000", "204536.595000", "204537.593000", "204538.573000", "204539.590000", "204540.576000", "204541.580000", "204542.578000", "204543.573000", "204544.644000", "204545.562000", "204546.575000", "204547.603000", "204548.573000", "204549.577000", "204550.565000", "204551.580000", "204552.593000", "204553.583000", "204554.584000", "204555.600000", "204556.592000", "204557.605000", "204558.655000", "204559.598000", "204600.586000", "204601.594000", "204602.575000", "204603.573000", "204604.577000", "204605.583000", "204606.578000", "204607.590000", "204608.590000", "204609.597000", "204610.571000", "204611.591000", "204612.578000", "204613.626000", "204614.590000", "204615.625000", "204616.608000", "204617.573000", "204618.587000", "204619.569000", "204620.674000", "204621.591000", "204622.610000", "204623.571000", "204624.589000", "204625.581000", "204626.588000", "204627.585000", "204628.591000", "204629.590000", "204630.606000", "204631.581000", "204632.586000", "204633.597000", "204634.581000", "204635.598000", "204636.594000", "204637.569000", "204638.592000", "204639.590000", "204640.599000", "204641.620000", "204642.577000", "204643.647000", "204644.579000", "204645.588000", "204646.562000", "204647.579000", "204648.567000", "204649.586000", "204650.610000", "204651.575000", "204652.591000", "204653.642000", "204654.591000", "204655.572000", "204656.584000", "204657.588000", "204658.585000", "204659.641000", "204700.591000", "204701.597000", "204702.600000", "204703.568000", "204704.571000", "204705.577000", "204706.573000", "204707.622000", "204708.578000", "204709.603000", "204710.581000", "204711.601000", "204712.597000", "204713.597000", "204714.577000", "204715.589000", "204716.578000", "204717.577000", "204718.574000", "204719.584000", "204720.603000", "204721.610000", "204722.604000", "204723.589000", "204724.578000", "204725.586000", "204726.597000", "204727.578000", "204728.687000", "204729.580000", "204730.564000", "204731.593000", "204732.568000", "204733.591000", "204734.579000", "204735.575000", "204736.584000", "204737.591000", "204738.609000", "204739.580000", "204740.577000", "204741.582000", "204742.564000", "204743.580000", "204744.578000", "204745.587000", "204746.585000", "204747.572000", "204748.623000", "204749.576000", "204750.576000", "204751.593000", "204752.565000", "204753.580000", "204754.593000", "204755.582000", "204756.583000", "204757.588000", "204758.605000", "204759.596000", "204800.566000", "204801.586000", "204802.593000", "204803.579000", "204804.569000", "204805.585000", "204806.580000", "204807.614000", "204808.597000", "204809.595000", "204810.583000", "204811.576000", "204812.587000", "204813.572000", "204814.577000", "204815.598000", "204816.578000", "204817.581000", "204818.562000", "204819.636000", "204820.573000", "204821.582000", "204822.571000", "204823.564000", "204824.572000", "204825.591000", "204826.597000", "204827.584000", "204828.588000", "204829.595000", "204830.566000", "204831.570000", "204832.600000", "204833.579000", "204834.587000", "204835.609000", "204836.575000", "204837.589000", "204838.604000", "204839.604000", "204840.585000", "204841.570000", "204842.587000", "204843.587000", "204844.600000", "204845.568000", "204846.594000", "204847.590000", "204848.588000", "204849.580000", "204850.602000", "204851.598000", "204852.573000", "204853.588000", "204854.573000", "204855.563000", "204856.668000", "204857.593000", "204858.600000", "204859.599000", "204900.613000", "204901.571000", "204902.601000", "204903.586000", "204904.573000", "204905.581000", "204906.584000", "204907.582000", "204908.598000", "204909.584000", "204910.576000", "204911.610000", "204912.572000", "204913.612000", "204914.582000", "204915.585000", "204916.590000", "204917.577000", "204918.573000", "204919.583000", "204920.622000", "204921.588000", "204922.577000", "204923.590000", "204924.577000", "204925.600000", "204926.578000", "204927.602000", "204928.565000", "204929.584000", "204930.609000", "204931.592000", "204932.599000", "204933.578000", "204934.588000", "204935.651000", "204936.565000", "204937.571000", "204938.581000", "204939.608000", "204940.572000", "204941.610000", "204942.618000", "204943.571000", "204944.590000", "204945.592000", "204946.619000", "204947.661000", "204948.633000", "204949.605000", "204950.615000", "204951.625000", "204952.633000", "204953.638000", "204954.638000", "204955.649000", "204956.686000", "204957.652000", "204958.644000", "204959.644000", "205000.637000", "205001.639000", "205002.619000", "205003.632000", "205004.621000", "205005.660000", "205006.622000", "205007.631000", "205008.642000", "205009.644000", "205010.634000", "205011.653000", "205012.684000", "205013.674000", "205014.617000", "205015.625000", "205016.620000", "205017.627000", "205018.626000", "205019.640000", "205020.619000", "205021.638000", "205022.657000", "205023.665000", "205024.616000"],
