{
  "AcquisitionMatrixPE": 96,
  "AcquisitionNumber": 1,
  "AcquisitionTime": "20:27:32.940000",
  "BandwidthPerPixelPhaseEncode": 18.939,
  "BaseResolution": 96,
  "BodyPartExamined": "BRAIN",
  "ConsistencyInfo": "N4_VE11C_LATEST_20160120",
  "ConversionSoftware": "dcm2niix",
  "ConversionSoftwareVersion": "v1.0.20190902",
  "DerivedVendorReportedEchoSpacing": 0.000550011,
  "DeviceSerialNumber": "66112",
  "DwellTime": 2.2e-06,
  "EchoTime": 0.033,
  "EchoTrainLength": 96,
  "EffectiveEchoSpacing": 0.000550011,
  "FlipAngle": 59,
  "ImageOrientationPatientDICOM": [0.996976, 0.0527895, 0.0570293, -0.0557396, 0.997119, 0.0514398],
  "ImageType": [
    "ORIGINAL",
    "PRIMARY",
    "FMRI",
    "NONE",
    "ND",
    "NORM",
    "MOSAIC"
],
  "ImagingFrequency": 123.252,
  "InPlanePhaseEncodingDirectionDICOM": "COL",
  "InstitutionAddress": "Maynard_3_Hanover_NH_US_03755",
  "InstitutionName": "Dartmouth_College_-_PBS",
  "InstitutionalDepartmentName": "Department",
  "MRAcquisitionType": "2D",
  "MagneticFieldStrength": 3,
  "Manufacturer": "Siemens",
  "ManufacturersModelName": "Prisma",
  "Modality": "MR",
  "MultibandAccelerationFactor": 4,
  "PartialFourier": 1,
  "PatientPosition": "HFS",
  "PercentPhaseFOV": 100,
  "PhaseEncodingDirection": "j-",
  "PhaseEncodingSteps": 96,
  "PhaseResolution": 1,
  "PixelBandwidth": 2365,
  "ProcedureStepDescription": "Gobbini_Matteo_1037_budapest",
  "ProtocolName": "func_run-05_task-movie",
  "PulseSequenceDetails": "%SiemensSeq%_ep2d_bold",
  "ReceiveCoilActiveElements": "HEA;HEP",
  "ReceiveCoilName": "Head_32",
  "ReconMatrixPE": 96,
  "RefLinesPE": 12,
  "RepetitionTime": 1,
  "SAR": 0.0658837,
  "ScanOptions": "FS",
  "ScanningSequence": "EP",
  "SequenceName": "_epfid2d1_96",
  "SequenceVariant": "SK",
  "SeriesDescription": "func_run-05_task-movie",
  "SeriesNumber": 36,
  "ShimSetting": [4169, -7725, -7269, 652, -17, -224, 121, 132],
  "SliceThickness": 2.5,
  "SliceTiming": [0.735, 0, 0.49, 0.0825, 0.5725, 0.1625, 0.6525, 0.3275, 0.8175, 0.4075, 0.8975, 0.245, 0.735, 0, 0.49, 0.0825, 0.5725, 0.1625, 0.6525, 0.3275, 0.8175, 0.4075, 0.8975, 0.245, 0.735, 0, 0.49, 0.0825, 0.5725, 0.1625, 0.6525, 0.3275, 0.8175, 0.4075, 0.8975, 0.245, 0.735, 0, 0.49, 0.0825, 0.5725, 0.1625, 0.6525, 0.3275, 0.8175, 0.4075, 0.8975, 0.245],
  "SoftwareVersions": "syngo_MR_E11",
  "SpacingBetweenSlices": 2.5,
  "StationName": "AWP66112",
  "TaskName": "movie",
  "TotalReadoutTime": 0.0522511,
  "TxRefAmp": 271.448,
  "dcmmeta_affine": [
    [-2.4924397468566895, -0.13934902846813202, 0.13537386059761047, 130.6332244873047],
    [-0.13197383284568787, 2.492798328399658, 0.13615766167640686, -104.76751708984375],
    [0.142573282122612, -0.12859958410263062, 2.4926159381866455, -65.32911682128906],
    [0.0, 0.0, 0.0, 1.0]
],
  "dcmmeta_reorient_transform": [
    [0.0, -1.0, 0.0, 95.0],
    [1.0, 0.0, 0.0, 0.0],
    [0.0, 0.0, 1.0, 0.0],
    [0.0, 0.0, 0.0, 1.0]
],
  "dcmmeta_shape": [96, 96, 48, 803],
  "dcmmeta_slice_dim": 2,
  "dcmmeta_version": 0.6,
  "global": {
    "const": {
      "AccessionNumber": "A001147",
      "AcquisitionMatrix": [96, 0, 0, 96],
      "AngioFlag": "N",
      "BitsAllocated": 16,
      "BitsStored": 12,
      "BodyPartExamined": "BRAIN",
      "Columns": 672,
      "EchoNumbers": 1,
      "EchoTime": 33.0,
      "EchoTrainLength": 96,
      "FlipAngle": 59.0,
      "HighBit": 11,
      "ImageOrientationPatient": [0.99697588877746, 0.05278953475706, 0.05702931015301, -0.0557396087908, 0.99711937064817, 0.05143983563393],
      "ImagePositionPatient": [-795.08518863633, -887.98274567712, -155.64385998789],
      "ImageType": [
        "ORIGINAL",
        "PRIMARY",
        "FMRI",
        "NONE",
        "ND",
        "NORM",
        "MOSAIC"
],
      "ImagedNucleus": "1H",
      "ImagingFrequency": 123.252319,
      "InPlanePhaseEncodingDirection": "COL",
      "MRAcquisitionType": "2D",
      "MagneticFieldStrength": 3.0,
      "Manufacturer": "SIEMENS",
      "ManufacturerModelName": "Prisma",
      "Modality": "MR",
      "NumberOfAverages": 1.0,
      "NumberOfPhaseEncodingSteps": 96,
      "PercentPhaseFieldOfView": 100.0,
      "PercentSampling": 100.0,
      "PerformedProcedureStepStartTime": "193049.501000",
      "PhotometricInterpretation": "MONOCHROME2",
      "PixelBandwidth": 2365.0,
      "PixelRepresentation": 0,
      "PixelSpacing": [2.5, 2.5],
      "ProtocolName": "func_run-05_task-movie",
      "RepetitionTime": 1000.0,
      "Rows": 672,
      "SAR": 0.06588374320905,
      "SamplesPerPixel": 1,
      "ScanOptions": "FS",
      "ScanningSequence": "EP",
      "SequenceName": "*epfid2d1_96",
      "SequenceVariant": "SK",
      "SeriesDescription": "func_run-05_task-movie",
      "SeriesNumber": 36,
      "SeriesTime": "202734.100000",
      "SliceLocation": -63.768391204577,
      "SliceThickness": 2.5,
      "SmallestImagePixelValue": 0,
      "SoftwareVersions": "syngo MR E11",
      "SpacingBetweenSlices": 2.4999999490533,
      "SpecificCharacterSet": "ISO_IR 100",
      "StudyID": "1",
      "StudyTime": "193049.446000",
      "TransmitCoilName": "Body",
      "VariableFlipAngleFlag": "N",
      "WindowCenterWidthExplanation": "Algo1",
      "dBdt": 0.0},
    "slices": {}
  },
  "time": {
    "samples": {
      "AcquisitionNumber": [1, 2, 3, 4, 5, 6, 7, 8, 9, 10, 11, 12, 13, 14, 15, 16, 17, 18, 19, 20, 21, 22, 23, 24, 25, 26, 27, 28, 29, 30, 31, 32, 33, 34, 35, 36, 37, 38, 39, 40, 41, 42, 43, 44, 45, 46, 47, 48, 49, 50, 51, 52, 53, 54, 55, 56, 57, 58, 59, 60, 61, 62, 63, 64, 65, 66, 67, 68, 69, 70, 71, 72, 73, 74, 75, 76, 77, 78, 79, 80, 81, 82, 83, 84, 85, 86, 87, 88, 89, 90, 91, 92, 93, 94, 95, 96, 97, 98, 99, 100, 101, 102, 103, 104, 105, 106, 107, 108, 109, 110, 111, 112, 113, 114, 115, 116, 117, 118, 119, 120, 121, 122, 123, 124, 125, 126, 127, 128, 129, 130, 131, 132, 133, 134, 135, 136, 137, 138, 139, 140, 141, 142, 143, 144, 145, 146, 147, 148, 149, 150, 151, 152, 153, 154, 155, 156, 157, 158, 159, 160, 161, 162, 163, 164, 165, 166, 167, 168, 169, 170, 171, 172, 173, 174, 175, 176, 177, 178, 179, 180, 181, 182, 183, 184, 185, 186, 187, 188, 189, 190, 191, 192, 193, 194, 195, 196, 197, 198, 199, 200, 201, 202, 203, 204, 205, 206, 207, 208, 209, 210, 211, 212, 213, 214, 215, 216, 217, 218, 219, 220, 221, 222, 223, 224, 225, 226, 227, 228, 229, 230, 231, 232, 233, 234, 235, 236, 237, 238, 239, 240, 241, 242, 243, 244, 245, 246, 247, 248, 249, 250, 251, 252, 253, 254, 255, 256, 257, 258, 259, 260, 261, 262, 263, 264, 265, 266, 267, 268, 269, 270, 271, 272, 273, 274, 275, 276, 277, 278, 279, 280, 281, 282, 283, 284, 285, 286, 287, 288, 289, 290, 291, 292, 293, 294, 295, 296, 297, 298, 299, 300, 301, 302, 303, 304, 305, 306, 307, 308, 309, 310, 311, 312, 313, 314, 315, 316, 317, 318, 319, 320, 321, 322, 323, 324, 325, 326, 327, 328, 329, 330, 331, 332, 333, 334, 335, 336, 337, 338, 339, 340, 341, 342, 343, 344, 345, 346, 347, 348, 349, 350, 351, 352, 353, 354, 355, 356, 357, 358, 359, 360, 361, 362, 363, 364, 365, 366, 367, 368, 369, 370, 371, 372, 373, 374, 375, 376, 377, 378, 379, 380, 381, 382, 383, 384, 385, 386, 387, 388, 389, 390, 391, 392, 393, 394, 395, 396, 397, 398, 399, 400, 401, 402, 403, 404, 405, 406, 407, 408, 409, 410, 411, 412, 413, 414, 415, 416, 417, 418, 419, 420, 421, 422, 423, 424, 425, 426, 427, 428, 429, 430, 431, 432, 433, 434, 435, 436, 437, 438, 439, 440, 441, 442, 443, 444, 445, 446, 447, 448, 449, 450, 451, 452, 453, 454, 455, 456, 457, 458, 459, 460, 461, 462, 463, 464, 465, 466, 467, 468, 469, 470, 471, 472, 473, 474, 475, 476, 477, 478, 479, 480, 481, 482, 483, 484, 485, 486, 487, 488, 489, 490, 491, 492, 493, 494, 495, 496, 497, 498, 499, 500, 501, 502, 503, 504, 505, 506, 507, 508, 509, 510, 511, 512, 513, 514, 515, 516, 517, 518, 519, 520, 521, 522, 523, 524, 525, 526, 527, 528, 529, 530, 531, 532, 533, 534, 535, 536, 537, 538, 539, 540, 541, 542, 543, 544, 545, 546, 547, 548, 549, 550, 551, 552, 553, 554, 555, 556, 557, 558, 559, 560, 561, 562, 563, 564, 565, 566, 567, 568, 569, 570, 571, 572, 573, 574, 575, 576, 577, 578, 579, 580, 581, 582, 583, 584, 585, 586, 587, 588, 589, 590, 591, 592, 593, 594, 595, 596, 597, 598, 599, 600, 601, 602, 603, 604, 605, 606, 607, 608, 609, 610, 611, 612, 613, 614, 615, 616, 617, 618, 619, 620, 621, 622, 623, 624, 625, 626, 627, 628, 629, 630, 631, 632, 633, 634, 635, 636, 637, 638, 639, 640, 641, 642, 643, 644, 645, 646, 647, 648, 649, 650, 651, 652, 653, 654, 655, 656, 657, 658, 659, 660, 661, 662, 663, 664, 665, 666, 667, 668, 669, 670, 671, 672, 673, 674, 675, 676, 677, 678, 679, 680, 681, 682, 683, 684, 685, 686, 687, 688, 689, 690, 691, 692, 693, 694, 695, 696, 697, 698, 699, 700, 701, 702, 703, 704, 705, 706, 707, 708, 709, 710, 711, 712, 713, 714, 715, 716, 717, 718, 719, 720, 721, 722, 723, 724, 725, 726, 727, 728, 729, 730, 731, 732, 733, 734, 735, 736, 737, 738, 739, 740, 741, 742, 743, 744, 745, 746, 747, 748, 749, 750, 751, 752, 753, 754, 755, 756, 757, 758, 759, 760, 761, 762, 763, 764, 765, 766, 767, 768, 769, 770, 771, 772, 773, 774, 775, 776, 777, 778, 779, 780, 781, 782, 783, 784, 785, 786, 787, 788, 789, 790, 791, 792, 793, 794, 795, 796, 797, 798, 799, 800, 801, 802, 803],
      "AcquisitionTime": ["202732.940000", "202733.940000", "202734.940000", "202735.940000", "202736.940000", "202737.940000", "202738.940000", "202739.940000", "202740.940000", "202741.940000", "202742.940000", "202743.940000", "202744.940000", "202745.940000", "202746.940000", "202747.940000", "202748.940000", "202749.940000", "202750.940000", "202751.940000", "202752.940000", "202753.940000", "202754.940000", "202755.940000", "202756.940000", "202757.940000", "202758.940000", "202759.940000", "202800.940000", "202801.940000", "202802.940000", "202803.940000", "202804.940000", "202805.940000", "202806.940000", "202807.940000", "202808.940000", "202809.940000", "202810.940000", "202811.940000", "202812.940000", "202813.940000", "202814.940000", "202815.940000", "202816.940000", "202817.940000", "202818.940000", "202819.940000", "202820.940000", "202821.940000", "202822.940000", "202823.940000", "202824.940000", "202825.940000", "202826.940000", "202827.940000", "202828.940000", "202829.940000", "202830.940000", "202831.940000", "202832.940000", "202833.940000", "202834.940000", "202835.940000", "202836.940000", "202837.940000", "202838.940000", "202839.940000", "202840.940000", "202841.940000", "202842.940000", "202843.940000", "202844.940000", "202845.940000", "202846.940000", "202847.940000", "202848.940000", "202849.940000", "202850.940000", "202851.940000", "202852.940000", "202853.940000", "202854.940000", "202855.940000", "202856.940000", "202857.940000", "202858.940000", "202859.940000", "202900.940000", "202901.940000", "202902.940000", "202903.940000", "202904.940000", "202905.940000", "202906.940000", "202907.940000", "202908.940000", "202909.940000", "202910.940000", "202911.940000", "202912.940000", "202913.940000", "202914.940000", "202915.940000", "202916.940000", "202917.940000", "202918.940000", "202919.940000", "202920.940000", "202921.940000", "202922.940000", "202923.940000", "202924.940000", "202925.940000", "202926.940000", "202927.940000", "202928.940000", "202929.940000", "202930.940000", "202931.940000", "202932.940000", "202933.940000", "202934.940000", "202935.940000", "202936.940000", "202937.940000", "202938.940000", "202939.940000", "202940.940000", "202941.940000", "202942.940000", "202943.940000", "202944.940000", "202945.940000", "202946.940000", "202947.940000", "202948.940000", "202949.940000", "202950.940000", "202951.940000", "202952.940000", "202953.940000", "202954.940000", "202955.940000", "202956.940000", "202957.940000", "202958.940000", "202959.940000", "203000.940000", "203001.940000", "203002.940000", "203003.940000", "203004.940000", "203005.940000", "203006.940000", "203007.940000", "203008.940000", "203009.940000", "203010.940000", "203011.940000", "203012.940000", "203013.940000", "203014.940000", "203015.940000", "203016.940000", "203017.940000", "203018.940000", "203019.940000", "203020.940000", "203021.940000", "203022.940000", "203023.940000", "203024.940000", "203025.940000", "203026.940000", "203027.940000", "203028.940000", "203029.940000", "203030.940000", "203031.940000", "203032.940000", "203033.940000", "203034.940000", "203035.940000", "203036.940000", "203037.940000", "203038.940000", "203039.940000", "203040.940000", "203041.940000", "203042.940000", "203043.940000", "203044.940000", "203045.940000", "203046.940000", "203047.940000", "203048.940000", "203049.940000", "203050.940000", "203051.940000", "203052.940000", "203053.940000", "203054.940000", "203055.940000", "203056.940000", "203057.940000", "203058.940000", "203059.940000", "203100.940000", "203101.940000", "203102.940000", "203103.940000", "203104.940000", "203105.940000", "203106.940000", "203107.940000", "203108.940000", "203109.940000", "203110.940000", "203111.940000", "203112.940000", "203113.940000", "203114.940000", "203115.940000", "203116.940000", "203117.940000", "203118.940000", "203119.940000", "203120.940000", "203121.940000", "203122.940000", "203123.940000", "203124.940000", "203125.940000", "203126.940000", "203127.940000", "203128.940000", "203129.940000", "203130.940000", "203131.940000", "203132.940000", "203133.940000", "203134.940000", "203135.940000", "203136.940000", "203137.940000", "203138.940000", "203139.940000", "203140.940000", "203141.940000", "203142.940000", "203143.940000", "203144.940000", "203145.940000", "203146.940000", "203147.940000", "203148.940000", "203149.940000", "203150.940000", "203151.940000", "203152.940000", "203153.940000", "203154.940000", "203155.940000", "203156.940000", "203157.940000", "203158.940000", "203159.940000", "203200.940000", "203201.940000", "203202.940000", "203203.940000", "203204.940000", "203205.940000", "203206.940000", "203207.940000", "203208.940000", "203209.940000", "203210.940000", "203211.940000", "203212.940000", "203213.940000", "203214.940000", "203215.940000", "203216.940000", "203217.940000", "203218.940000", "203219.940000", "203220.940000", "203221.940000", "203222.940000", "203223.940000", "203224.940000", "203225.940000", "203226.940000", "203227.940000", "203228.940000", "203229.940000", "203230.940000", "203231.940000", "203232.940000", "203233.940000", "203234.940000", "203235.940000", "203236.940000", "203237.940000", "203238.940000", "203239.940000", "203240.940000", "203241.940000", "203242.940000", "203243.940000", "203244.940000", "203245.940000", "203246.940000", "203247.940000", "203248.940000", "203249.940000", "203250.940000", "203251.940000", "203252.940000", "203253.940000", "203254.940000", "203255.940000", "203256.940000", "203257.940000", "203258.940000", "203259.940000", "203300.940000", "203301.940000", "203302.940000", "203303.940000", "203304.940000", "203305.940000", "203306.940000", "203307.940000", "203308.940000", "203309.940000", "203310.940000", "203311.940000", "203312.940000", "203313.940000", "203314.940000", "203315.940000", "203316.940000", "203317.940000", "203318.940000", "203319.940000", "203320.940000", "203321.940000", "203322.940000", "203323.940000", "203324.940000", "203325.940000", "203326.940000", "203327.940000", "203328.940000", "203329.940000", "203330.940000", "203331.940000", "203332.940000", "203333.940000", "203334.940000", "203335.940000", "203336.940000", "203337.940000", "203338.940000", "203339.940000", "203340.940000", "203341.940000", "203342.940000", "203343.940000", "203344.940000", "203345.940000", "203346.940000", "203347.940000", "203348.940000", "203349.940000", "203350.940000", "203351.940000", "203352.940000", "203353.940000", "203354.940000", "203355.940000", "203356.940000", "203357.940000", "203358.940000", "203359.940000", "203400.940000", "203401.940000", "203402.940000", "203403.940000", "203404.940000", "203405.940000", "203406.940000", "203407.940000", "203408.940000", "203409.940000", "203410.940000", "203411.940000", "203412.940000", "203413.940000", "203414.940000", "203415.940000", "203416.940000", "203417.940000", "203418.940000", "203419.940000", "203420.940000", "203421.940000", "203422.940000", "203423.940000", "203424.940000", "203425.940000", "203426.940000", "203427.940000", "203428.940000", "203429.940000", "203430.940000", "203431.940000", "203432.940000", "203433.940000", "203434.940000", "203435.940000", "203436.940000", "203437.940000", "203438.940000", "203439.940000", "203440.940000", "203441.940000", "203442.940000", "203443.940000", "203444.940000", "203445.940000", "203446.940000", "203447.940000", "203448.940000", "203449.940000", "203450.940000", "203451.940000", "203452.940000", "203453.940000", "203454.940000", "203455.940000", "203456.940000", "203457.940000", "203458.940000", "203459.940000", "203500.940000", "203501.940000", "203502.940000", "203503.940000", "203504.940000", "203505.940000", "203506.940000", "203507.940000", "203508.940000", "203509.940000", "203510.940000", "203511.940000", "203512.940000", "203513.940000", "203514.940000", "203515.940000", "203516.940000", "203517.940000", "203518.940000", "203519.940000", "203520.940000", "203521.940000", "203522.940000", "203523.940000", "203524.940000", "203525.940000", "203526.940000", "203527.940000", "203528.940000", "203529.940000", "203530.940000", "203531.940000", "203532.940000", "203533.940000", "203534.940000", "203535.940000", "203536.940000", "203537.940000", "203538.940000", "203539.940000", "203540.940000", "203541.940000", "203542.940000", "203543.940000", "203544.940000", "203545.940000", "203546.940000", "203547.940000", "203548.940000", "203549.940000", "203550.940000", "203551.940000", "203552.940000", "203553.940000", "203554.940000", "203555.940000", "203556.940000", "203557.940000", "203558.940000", "203559.940000", "203600.940000", "203601.940000", "203602.940000", "203603.940000", "203604.940000", "203605.940000", "203606.940000", "203607.940000", "203608.940000", "203609.940000", "203610.940000", "203611.940000", "203612.940000", "203613.940000", "203614.940000", "203615.940000", "203616.940000", "203617.940000", "203618.940000", "203619.940000", "203620.940000", "203621.940000", "203622.940000", "203623.940000", "203624.940000", "203625.940000", "203626.940000", "203627.940000", "203628.940000", "203629.940000", "203630.940000", "203631.940000", "203632.940000", "203633.940000", "203634.940000", "203635.940000", "203636.940000", "203637.940000", "203638.940000", "203639.940000", "203640.940000", "203641.940000", "203642.940000", "203643.940000", "203644.940000", "203645.940000", "203646.940000", "203647.940000", "203648.940000", "203649.940000", "203650.940000", "203651.940000", "203652.940000", "203653.940000", "203654.940000", "203655.940000", "203656.940000", "203657.940000", "203658.940000", "203659.940000", "203700.940000", "203701.940000", "203702.940000", "203703.940000", "203704.940000", "203705.940000", "203706.940000", "203707.940000", "203708.940000", "203709.940000", "203710.940000", "203711.940000", "203712.940000", "203713.940000", "203714.940000", "203715.940000", "203716.940000", "203717.940000", "203718.940000", "203719.940000", "203720.940000", "203721.940000", "203722.940000", "203723.940000", "203724.940000", "203725.940000", "203726.940000", "203727.940000", "203728.940000", "203729.940000", "203730.940000", "203731.940000", "203732.940000", "203733.940000", "203734.940000", "203735.940000", "203736.940000", "203737.940000", "203738.940000", "203739.940000", "203740.940000", "203741.940000", "203742.940000", "203743.940000", "203744.940000", "203745.940000", "203746.940000", "203747.940000", "203748.940000", "203749.940000", "203750.940000", "203751.940000", "203752.940000", "203753.940000", "203754.940000", "203755.940000", "203756.940000", "203757.940000", "203758.940000", "203759.940000", "203800.940000", "203801.940000", "203802.940000", "203803.940000", "203804.940000", "203805.940000", "203806.940000", "203807.940000", "203808.940000", "203809.940000", "203810.940000", "203811.940000", "203812.940000", "203813.940000", "203814.940000", "203815.940000", "203816.940000", "203817.940000", "203818.940000", "203819.940000", "203820.940000", "203821.940000", "203822.940000", "203823.940000", "203824.940000", "203825.940000", "203826.940000", "203827.940000", "203828.940000", "203829.940000", "203830.940000", "203831.940000", "203832.940000", "203833.940000", "203834.940000", "203835.940000", "203836.940000", "203837.940000", "203838.940000", "203839.940000", "203840.940000", "203841.940000", "203842.940000", "203843.940000", "203844.940000", "203845.940000", "203846.940000", "203847.940000", "203848.940000", "203849.940000", "203850.940000", "203851.940000", "203852.940000", "203853.940000", "203854.940000", "203855.940000", "203856.940000", "203857.940000", "203858.940000", "203859.940000", "203900.940000", "203901.940000", "203902.940000", "203903.940000", "203904.940000", "203905.940000", "203906.940000", "203907.940000", "203908.940000", "203909.940000", "203910.940000", "203911.940000", "203912.940000", "203913.940000", "203914.940000", "203915.940000", "203916.940000", "203917.940000", "203918.940000", "203919.940000", "203920.940000", "203921.940000", "203922.940000", "203923.940000", "203924.940000", "203925.940000", "203926.940000", "203927.940000", "203928.940000", "203929.940000", "203930.940000", "203931.940000", "203932.940000", "203933.940000", "203934.940000", "203935.940000", "203936.940000", "203937.940000", "203938.940000", "203939.940000", "203940.940000", "203941.940000", "203942.940000", "203943.940000", "203944.940000", "203945.940000", "203946.940000", "203947.940000", "203948.940000", "203949.940000", "203950.940000", "203951.940000", "203952.940000", "203953.940000", "203954.940000", "203955.940000", "203956.940000", "203957.940000", "203958.940000", "203959.940000", "204000.940000", "204001.940000", "204002.940000", "204003.940000", "204004.940000", "204005.940000", "204006.940000", "204007.940000", "204008.940000", "204009.940000", "204010.940000", "204011.940000", "204012.940000", "204013.940000", "204014.940000", "204015.940000", "204016.940000", "204017.940000", "204018.940000", "204019.940000", "204020.940000", "204021.940000", "204022.940000", "204023.940000", "204024.940000", "204025.940000", "204026.940000", "204027.940000", "204028.940000", "204029.940000", "204030.940000", "204031.940000", "204032.940000", "204033.940000", "204034.940000", "204035.940000", "204036.940000", "204037.940000", "204038.940000", "204039.940000", "204040.940000", "204041.940000", "204042.940000", "204043.940000", "204044.940000", "204045.940000", "204046.940000", "204047.940000", "204048.940000", "204049.940000", "204050.940000", "204051.940000", "204052.940000", "204053.940000", "204054.940000"],
