{
  "AcquisitionMatrixPE": 96,
  "AcquisitionNumber": 1,
  "AcquisitionTime": "20:07:0.250000",
  "BandwidthPerPixelPhaseEncode": 18.939,
  "BaseResolution": 96,
  "BodyPartExamined": "BRAIN",
  "ConsistencyInfo": "N4_VE11C_LATEST_20160120",
  "ConversionSoftware": "dcm2niix",
  "ConversionSoftwareVersion": "v1.0.20190902",
  "DerivedVendorReportedEchoSpacing": 0.000550011,
  "DeviceSerialNumber": "66112",
  "DwellTime": 2.2e-06,
  "EchoTime": 0.033,
  "EchoTrainLength": 96,
  "EffectiveEchoSpacing": 0.000550011,
  "FlipAngle": 59,
  "ImageOrientationPatientDICOM": [0.996976, 0.0527895, 0.0570293, -0.0557396, 0.997119, 0.0514398],
  "ImageType": [
    "ORIGINAL",
    "PRIMARY",
    "FMRI",
    "NONE",
    "ND",
    "NORM",
    "MOSAIC"
],
  "ImagingFrequency": 123.252,
  "InPlanePhaseEncodingDirectionDICOM": "COL",
  "InstitutionAddress": "Maynard_3_Hanover_NH_US_03755",
  "InstitutionName": "Dartmouth_College_-_PBS",
  "InstitutionalDepartmentName": "Department",
  "MRAcquisitionType": "2D",
  "MagneticFieldStrength": 3,
  "Manufacturer": "Siemens",
  "ManufacturersModelName": "Prisma",
  "Modality": "MR",
  "MultibandAccelerationFactor": 4,
  "PartialFourier": 1,
  "PatientPosition": "HFS",
  "PercentPhaseFOV": 100,
  "PhaseEncodingDirection": "j-",
  "PhaseEncodingSteps": 96,
  "PhaseResolution": 1,
  "PixelBandwidth": 2365,
  "ProcedureStepDescription": "Gobbini_Matteo_1037_budapest",
  "ProtocolName": "func_run-03_task-movie",
  "PulseSequenceDetails": "%SiemensSeq%_ep2d_bold",
  "ReceiveCoilActiveElements": "HEA;HEP",
  "ReceiveCoilName": "Head_32",
  "ReconMatrixPE": 96,
  "RefLinesPE": 12,
  "RepetitionTime": 1,
  "SAR": 0.0657509,
  "ScanOptions": "FS",
  "ScanningSequence": "EP",
  "SequenceName": "_epfid2d1_96",
  "SequenceVariant": "SK",
  "SeriesDescription": "func_run-03_task-movie",
  "SeriesNumber": 22,
  "ShimSetting": [4169, -7725, -7269, 652, -17, -224, 121, 132],
  "SliceThickness": 2.5,
  "SliceTiming": [0.735, 0, 0.49, 0.08, 0.57, 0.1625, 0.6525, 0.325, 0.815, 0.4075, 0.8975, 0.245, 0.735, 0, 0.49, 0.08, 0.57, 0.1625, 0.6525, 0.325, 0.815, 0.4075, 0.8975, 0.245, 0.735, 0, 0.49, 0.08, 0.57, 0.1625, 0.6525, 0.325, 0.815, 0.4075, 0.8975, 0.245, 0.735, 0, 0.49, 0.08, 0.57, 0.1625, 0.6525, 0.325, 0.815, 0.4075, 0.8975, 0.245],
  "SoftwareVersions": "syngo_MR_E11",
  "SpacingBetweenSlices": 2.5,
  "StationName": "AWP66112",
  "TaskName": "movie",
  "TotalReadoutTime": 0.0522511,
  "TxRefAmp": 271.448,
  "dcmmeta_affine": [
    [-2.4924397468566895, -0.13934902846813202, 0.13537386059761047, 130.6332244873047],
    [-0.13197383284568787, 2.492798328399658, 0.13615766167640686, -104.76751708984375],
    [0.142573282122612, -0.12859958410263062, 2.4926159381866455, -65.32911682128906],
    [0.0, 0.0, 0.0, 1.0]
],
  "dcmmeta_reorient_transform": [
    [0.0, -1.0, 0.0, 95.0],
    [1.0, 0.0, 0.0, 0.0],
    [0.0, 0.0, 1.0, 0.0],
    [0.0, 0.0, 0.0, 1.0]
],
  "dcmmeta_shape": [96, 96, 48, 535],
  "dcmmeta_slice_dim": 2,
  "dcmmeta_version": 0.6,
  "global": {
    "const": {
      "AccessionNumber": "A001147",
      "AcquisitionMatrix": [96, 0, 0, 96],
      "AngioFlag": "N",
      "BitsAllocated": 16,
      "BitsStored": 12,
      "BodyPartExamined": "BRAIN",
      "Columns": 672,
      "EchoNumbers": 1,
      "EchoTime": 33.0,
      "EchoTrainLength": 96,
      "FlipAngle": 59.0,
      "HighBit": 11,
      "ImageOrientationPatient": [0.99697588877746, 0.05278953475706, 0.05702931015301, -0.0557396087908, 0.99711937064817, 0.05143983563393],
      "ImagePositionPatient": [-795.08518863633, -887.98274567712, -155.64385998789],
      "ImageType": [
        "ORIGINAL",
        "PRIMARY",
        "FMRI",
        "NONE",
        "ND",
        "NORM",
        "MOSAIC"
],
      "ImagedNucleus": "1H",
      "ImagingFrequency": 123.252312,
      "InPlanePhaseEncodingDirection": "COL",
      "MRAcquisitionType": "2D",
      "MagneticFieldStrength": 3.0,
      "Manufacturer": "SIEMENS",
      "ManufacturerModelName": "Prisma",
      "Modality": "MR",
      "NumberOfAverages": 1.0,
      "NumberOfPhaseEncodingSteps": 96,
      "PercentPhaseFieldOfView": 100.0,
      "PercentSampling": 100.0,
      "PerformedProcedureStepStartTime": "193049.501000",
      "PhotometricInterpretation": "MONOCHROME2",
      "PixelBandwidth": 2365.0,
      "PixelRepresentation": 0,
      "PixelSpacing": [2.5, 2.5],
      "ProtocolName": "func_run-03_task-movie",
      "RepetitionTime": 1000.0,
      "Rows": 672,
      "SAR": 0.06575086352792,
      "SamplesPerPixel": 1,
      "ScanOptions": "FS",
      "ScanningSequence": "EP",
      "SequenceName": "*epfid2d1_96",
      "SequenceVariant": "SK",
      "SeriesDescription": "func_run-03_task-movie",
      "SeriesNumber": 22,
      "SeriesTime": "200701.145000",
      "SliceLocation": -63.768391204577,
      "SliceThickness": 2.5,
      "SmallestImagePixelValue": 0,
      "SoftwareVersions": "syngo MR E11",
      "SpacingBetweenSlices": 2.4999999490533,
      "SpecificCharacterSet": "ISO_IR 100",
      "StudyID": "1",
      "StudyTime": "193049.446000",
      "TransmitCoilName": "Body",
      "VariableFlipAngleFlag": "N",
      "WindowCenterWidthExplanation": "Algo1",
      "dBdt": 0.0},
    "slices": {}
  },
  "time": {
    "samples": {
      "AcquisitionNumber": [1, 2, 3, 4, 5, 6, 7, 8, 9, 10, 11, 12, 13, 14, 15, 16, 17, 18, 19, 20, 21, 22, 23, 24, 25, 26, 27, 28, 29, 30, 31, 32, 33, 34, 35, 36, 37, 38, 39, 40, 41, 42, 43, 44, 45, 46, 47, 48, 49, 50, 51, 52, 53, 54, 55, 56, 57, 58, 59, 60, 61, 62, 63, 64, 65, 66, 67, 68, 69, 70, 71, 72, 73, 74, 75, 76, 77, 78, 79, 80, 81, 82, 83, 84, 85, 86, 87, 88, 89, 90, 91, 92, 93, 94, 95, 96, 97, 98, 99, 100, 101, 102, 103, 104, 105, 106, 107, 108, 109, 110, 111, 112, 113, 114, 115, 116, 117, 118, 119, 120, 121, 122, 123, 124, 125, 126, 127, 128, 129, 130, 131, 132, 133, 134, 135, 136, 137, 138, 139, 140, 141, 142, 143, 144, 145, 146, 147, 148, 149, 150, 151, 152, 153, 154, 155, 156, 157, 158, 159, 160, 161, 162, 163, 164, 165, 166, 167, 168, 169, 170, 171, 172, 173, 174, 175, 176, 177, 178, 179, 180, 181, 182, 183, 184, 185, 186, 187, 188, 189, 190, 191, 192, 193, 194, 195, 196, 197, 198, 199, 200, 201, 202, 203, 204, 205, 206, 207, 208, 209, 210, 211, 212, 213, 214, 215, 216, 217, 218, 219, 220, 221, 222, 223, 224, 225, 226, 227, 228, 229, 230, 231, 232, 233, 234, 235, 236, 237, 238, 239, 240, 241, 242, 243, 244, 245, 246, 247, 248, 249, 250, 251, 252, 253, 254, 255, 256, 257, 258, 259, 260, 261, 262, 263, 264, 265, 266, 267, 268, 269, 270, 271, 272, 273, 274, 275, 276, 277, 278, 279, 280, 281, 282, 283, 284, 285, 286, 287, 288, 289, 290, 291, 292, 293, 294, 295, 296, 297, 298, 299, 300, 301, 302, 303, 304, 305, 306, 307, 308, 309, 310, 311, 312, 313, 314, 315, 316, 317, 318, 319, 320, 321, 322, 323, 324, 325, 326, 327, 328, 329, 330, 331, 332, 333, 334, 335, 336, 337, 338, 339, 340, 341, 342, 343, 344, 345, 346, 347, 348, 349, 350, 351, 352, 353, 354, 355, 356, 357, 358, 359, 360, 361, 362, 363, 364, 365, 366, 367, 368, 369, 370, 371, 372, 373, 374, 375, 376, 377, 378, 379, 380, 381, 382, 383, 384, 385, 386, 387, 388, 389, 390, 391, 392, 393, 394, 395, 396, 397, 398, 399, 400, 401, 402, 403, 404, 405, 406, 407, 408, 409, 410, 411, 412, 413, 414, 415, 416, 417, 418, 419, 420, 421, 422, 423, 424, 425, 426, 427, 428, 429, 430, 431, 432, 433, 434, 435, 436, 437, 438, 439, 440, 441, 442, 443, 444, 445, 446, 447, 448, 449, 450, 451, 452, 453, 454, 455, 456, 457, 458, 459, 460, 461, 462, 463, 464, 465, 466, 467, 468, 469, 470, 471, 472, 473, 474, 475, 476, 477, 478, 479, 480, 481, 482, 483, 484, 485, 486, 487, 488, 489, 490, 491, 492, 493, 494, 495, 496, 497, 498, 499, 500, 501, 502, 503, 504, 505, 506, 507, 508, 509, 510, 511, 512, 513, 514, 515, 516, 517, 518, 519, 520, 521, 522, 523, 524, 525, 526, 527, 528, 529, 530, 531, 532, 533, 534, 535],
      "AcquisitionTime": ["200700.250000", "200701.250000", "200702.250000", "200703.250000", "200704.250000", "200705.250000", "200706.250000", "200707.250000", "200708.250000", "200709.250000", "200710.250000", "200711.250000", "200712.250000", "200713.250000", "200714.250000", "200715.250000", "200716.250000", "200717.250000", "200718.250000", "200719.250000", "200720.250000", "200721.250000", "200722.250000", "200723.250000", "200724.250000", "200725.250000", "200726.250000", "200727.250000", "200728.250000", "200729.250000", "200730.250000", "200731.250000", "200732.250000", "200733.250000", "200734.250000", "200735.250000", "200736.250000", "200737.250000", "200738.250000", "200739.250000", "200740.250000", "200741.250000", "200742.250000", "200743.250000", "200744.250000", "200745.250000", "200746.250000", "200747.250000", "200748.250000", "200749.250000", "200750.250000", "200751.250000", "200752.250000", "200753.250000", "200754.250000", "200755.250000", "200756.250000", "200757.250000", "200758.250000", "200759.250000", "200800.250000", "200801.250000", "200802.250000", "200803.250000", "200804.250000", "200805.250000", "200806.250000", "200807.250000", "200808.250000", "200809.250000", "200810.250000", "200811.250000", "200812.250000", "200813.250000", "200814.250000", "200815.250000", "200816.250000", "200817.250000", "200818.250000", "200819.250000", "200820.250000", "200821.250000", "200822.250000", "200823.250000", "200824.250000", "200825.250000", "200826.250000", "200827.250000", "200828.250000", "200829.250000", "200830.250000", "200831.250000", "200832.250000", "200833.250000", "200834.250000", "200835.250000", "200836.250000", "200837.250000", "200838.250000", "200839.250000", "200840.250000", "200841.250000", "200842.250000", "200843.250000", "200844.250000", "200845.250000", "200846.250000", "200847.250000", "200848.250000", "200849.250000", "200850.250000", "200851.250000", "200852.250000", "200853.250000", "200854.250000", "200855.250000", "200856.250000", "200857.250000", "200858.250000", "200859.250000", "200900.250000", "200901.250000", "200902.250000", "200903.250000", "200904.250000", "200905.250000", "200906.250000", "200907.250000", "200908.250000", "200909.250000", "200910.250000", "200911.250000", "200912.250000", "200913.250000", "200914.250000", "200915.250000", "200916.250000", "200917.250000", "200918.250000", "200919.250000", "200920.250000", "200921.250000", "200922.250000", "200923.250000", "200924.250000", "200925.250000", "200926.250000", "200927.250000", "200928.250000", "200929.250000", "200930.250000", "200931.250000", "200932.250000", "200933.250000", "200934.250000", "200935.250000", "200936.250000", "200937.250000", "200938.250000", "200939.250000", "200940.250000", "200941.250000", "200942.250000", "200943.250000", "200944.250000", "200945.250000", "200946.250000", "200947.250000", "200948.250000", "200949.250000", "200950.250000", "200951.250000", "200952.250000", "200953.250000", "200954.250000", "200955.250000", "200956.250000", "200957.250000", "200958.250000", "200959.250000", "201000.250000", "201001.250000", "201002.250000", "201003.250000", "201004.250000", "201005.250000", "201006.250000", "201007.250000", "201008.250000", "201009.250000", "201010.250000", "201011.250000", "201012.250000", "201013.250000", "201014.250000", "201015.250000", "201016.250000", "201017.250000", "201018.250000", "201019.250000", "201020.250000", "201021.250000", "201022.250000", "201023.250000", "201024.250000", "201025.250000", "201026.250000", "201027.250000", "201028.250000", "201029.250000", "201030.250000", "201031.250000", "201032.250000", "201033.250000", "201034.250000", "201035.250000", "201036.250000", "201037.250000", "201038.250000", "201039.250000", "201040.250000", "201041.250000", "201042.250000", "201043.250000", "201044.250000", "201045.250000", "201046.250000", "201047.250000", "201048.250000", "201049.250000", "201050.250000", "201051.250000", "201052.250000", "201053.250000", "201054.250000", "201055.250000", "201056.250000", "201057.250000", "201058.250000", "201059.250000", "201100.250000", "201101.250000", "201102.250000", "201103.250000", "201104.250000", "201105.250000", "201106.250000", "201107.250000", "201108.250000", "201109.250000", "201110.250000", "201111.250000", "201112.250000", "201113.250000", "201114.250000", "201115.250000", "201116.250000", "201117.250000", "201118.250000", "201119.250000", "201120.250000", "201121.250000", "201122.250000", "201123.250000", "201124.250000", "201125.250000", "201126.250000", "201127.250000", "201128.250000", "201129.250000", "201130.250000", "201131.250000", "201132.250000", "201133.250000", "201134.250000", "201135.250000", "201136.250000", "201137.250000", "201138.250000", "201139.250000", "201140.250000", "201141.250000", "201142.250000", "201143.250000", "201144.250000", "201145.250000", "201146.250000", "201147.250000", "201148.250000", "201149.250000", "201150.250000", "201151.250000", "201152.250000", "201153.250000", "201154.250000", "201155.250000", "201156.250000", "201157.250000", "201158.250000", "201159.250000", "201200.250000", "201201.250000", "201202.250000", "201203.250000", "201204.250000", "201205.250000", "201206.250000", "201207.250000", "201208.250000", "201209.250000", "201210.250000", "201211.250000", "201212.250000", "201213.250000", "201214.250000", "201215.250000", "201216.250000", "201217.250000", "201218.250000", "201219.250000", "201220.250000", "201221.250000", "201222.250000", "201223.250000", "201224.250000", "201225.250000", "201226.250000", "201227.250000", "201228.250000", "201229.250000", "201230.250000", "201231.250000", "201232.250000", "201233.250000", "201234.250000", "201235.250000", "201236.250000", "201237.250000", "201238.250000", "201239.250000", "201240.250000", "201241.250000", "201242.250000", "201243.250000", "201244.250000", "201245.250000", "201246.250000", "201247.250000", "201248.250000", "201249.250000", "201250.250000", "201251.250000", "201252.250000", "201253.250000", "201254.250000", "201255.250000", "201256.250000", "201257.250000", "201258.250000", "201259.250000", "201300.250000", "201301.250000", "201302.250000", "201303.250000", "201304.250000", "201305.250000", "201306.250000", "201307.250000", "201308.250000", "201309.250000", "201310.250000", "201311.250000", "201312.250000", "201313.250000", "201314.250000", "201315.250000", "201316.250000", "201317.250000", "201318.250000", "201319.250000", "201320.250000", "201321.250000", "201322.250000", "201323.250000", "201324.250000", "201325.250000", "201326.250000", "201327.250000", "201328.250000", "201329.250000", "201330.250000", "201331.250000", "201332.250000", "201333.250000", "201334.250000", "201335.250000", "201336.250000", "201337.250000", "201338.250000", "201339.250000", "201340.250000", "201341.250000", "201342.250000", "201343.250000", "201344.250000", "201345.250000", "201346.250000", "201347.250000", "201348.250000", "201349.250000", "201350.250000", "201351.250000", "201352.250000", "201353.250000", "201354.250000", "201355.250000", "201356.250000", "201357.250000", "201358.250000", "201359.250000", "201400.250000", "201401.250000", "201402.250000", "201403.250000", "201404.250000", "201405.250000", "201406.250000", "201407.250000", "201408.250000", "201409.250000", "201410.250000", "201411.250000", "201412.250000", "201413.250000", "201414.250000", "201415.250000", "201416.250000", "201417.250000", "201418.250000", "201419.250000", "201420.250000", "201421.250000", "201422.250000", "201423.250000", "201424.250000", "201425.250000", "201426.250000", "201427.250000", "201428.250000", "201429.250000", "201430.250000", "201431.250000", "201432.250000", "201433.250000", "201434.250000", "201435.250000", "201436.250000", "201437.250000", "201438.250000", "201439.250000", "201440.250000", "201441.250000", "201442.250000", "201443.250000", "201444.250000", "201445.250000", "201446.250000", "201447.250000", "201448.250000", "201449.250000", "201450.250000", "201451.250000", "201452.250000", "201453.250000", "201454.250000", "201455.250000", "201456.250000", "201457.250000", "201458.250000", "201459.250000", "201500.250000", "201501.250000", "201502.250000", "201503.250000", "201504.250000", "201505.250000", "201506.250000", "201507.250000", "201508.250000", "201509.250000", "201510.250000", "201511.250000", "201512.250000", "201513.250000", "201514.250000", "201515.250000", "201516.250000", "201517.250000", "201518.250000", "201519.250000", "201520.250000", "201521.250000", "201522.250000", "201523.250000", "201524.250000", "201525.250000", "201526.250000", "201527.250000", "201528.250000", "201529.250000", "201530.250000", "201531.250000", "201532.250000", "201533.250000", "201534.250000", "201535.250000", "201536.250000", "201537.250000", "201538.250000", "201539.250000", "201540.250000", "201541.250000", "201542.250000", "201543.250000", "201544.250000", "201545.250000", "201546.250000", "201547.250000", "201548.250000", "201549.250000", "201550.250000", "201551.250000", "201552.250000", "201553.250000", "201554.250000"],
      "ContentTime": ["200701.149000", "200702.018000", "200703.020000", "200704.003000", "200705.009000", "200705.992000", "200706.995000", "200708.000000", "200708.987000", "200710.003000", "200711.006000", "200711.986000", "200712.990000", "200713.986000", "200715.015000", "200715.982000", "200716.985000", "200717.978000", "200718.999000", "200719.983000", "200720.983000", "200721.994000", "200723.025000", "200723.978000", "200724.945000", "200725.955000", "200727.028000", "200728.015000", "200728.991000", "200729.991000", "200730.988000", "200731.989000", "200732.979000", "200733.982000", "200734.975000", "200736.001000", "200736.987000", "200738.016000", "200738.975000", "200740.005000", "200741.006000", "200741.985000", "200742.979000", "200743.984000", "200745.009000", "200746.052000", "200746.989000", "200747.998000", "200748.988000", "200749.963000", "200750.981000", "200751.972000", "200752.961000", "200754.000000", "200754.977000", "200755.980000", "200756.980000", "200758.026000", "200758.978000", "200759.984000", "200800.971000", "200801.977000", "200802.979000", "200803.983000", "200805.000000", "200805.983000", "200807.002000", "200807.992000", "200809.025000", "200809.983000", "200811.017000", "200811.972000", "200812.986000", "200814.010000", "200814.972000", "200815.978000", "200816.981000", "200817.977000", "200819.011000", "200819.985000", "200820.989000", "200821.985000", "200822.981000", "200823.969000", "200825.005000", "200825.984000", "200827.003000", "200827.986000", "200828.970000", "200829.967000", "200830.957000", "200831.981000", "200832.953000", "200833.965000", "200834.986000", "200836.007000", "200836.985000", "200837.990000", "200838.989000", "200839.981000", "200840.984000", "200841.968000", "200842.992000", "200844.002000", "200845.019000", "200845.988000", "200847.012000", "200847.968000", "200849.025000", "200849.984000", "200851.042000", "200851.985000", "200852.998000", "200854.015000", "200854.989000", "200856.000000", "200856.951000", "200858.024000", "200859.013000", "200900.004000", "200901.007000", "200902.006000", "200903.070000", "200903.994000", "200904.989000", "200905.973000", "200907.008000", "200907.991000", "200908.991000", "200909.985000", "200910.981000", "200911.998000", "200912.991000", "200913.992000", "200914.985000", "200915.975000", "200917.019000", "200917.988000", "200919.007000", "200919.997000", "200921.004000", "200922.006000", "200922.991000", "200923.982000", "200925.008000", "200925.987000", "200927.024000", "200928.004000", "200928.985000", "200929.989000", "200930.988000", "200931.988000", "200932.981000", "200934.010000", "200934.984000", "200936.070000", "200937.041000", "200938.009000", "200938.971000", "200939.980000", "200940.988000", "200942.014000", "200943.000000", "200943.974000", "200945.007000", "200945.974000", "200947.001000", "200948.075000", "200948.983000", "200949.983000", "200951.001000", "200952.030000", "200953.035000", "200953.992000", "200954.982000", "200955.979000", "200956.998000", "200957.988000", "200958.990000", "201000.012000", "201001.001000", "201001.993000", "201003.025000", "201004.001000", "201004.996000", "201006.015000", "201006.986000", "201007.987000", "201008.995000", "201009.989000", "201011.001000", "201012.017000", "201013.023000", "201014.023000", "201015.007000", "201015.969000", "201017.025000", "201017.989000", "201018.998000", "201020.007000", "201020.993000", "201021.984000", "201022.986000", "201023.997000", "201024.987000", "201026.003000", "201026.978000", "201027.974000", "201028.994000", "201029.998000", "201030.982000", "201031.982000", "201033.004000", "201034.034000", "201035.003000", "201035.969000", "201037.004000", "201038.007000", "201039.032000", "201040.021000", "201040.995000", "201042.000000", "201043.005000", "201043.964000", "201044.980000", "201045.976000", "201046.983000", "201047.984000", "201048.992000", "201049.988000", "201051.027000", "201052.004000", "201053.055000", "201054.045000", "201055.008000", "201056.033000", "201057.016000", "201058.002000", "201058.994000", "201100.031000", "201100.978000", "201102.003000", "201102.977000", "201103.991000", "201105.013000", "201106.011000", "201107.035000", "201107.982000", "201108.956000", "201109.985000", "201110.984000", "201111.980000", "201112.983000", "201114.000000", "201115.000000", "201115.982000", "201116.979000", "201117.962000", "201119.022000", "201120.027000", "201120.981000", "201121.996000", "201122.981000", "201123.996000", "201124.981000", "201126.025000", "201127.007000", "201127.964000", "201128.980000", "201129.996000", "201130.997000", "201131.996000", "201132.943000", "201134.003000", "201135.006000", "201135.985000", "201137.016000", "201137.954000", "201138.987000", "201139.952000", "201140.998000", "201141.990000", "201142.977000", "201143.981000", "201145.012000", "201146.003000", "201146.984000", "201147.986000", "201148.983000", "201149.981000", "201151.039000", "201151.960000", "201152.979000", "201153.954000", "201154.958000", "201155.998000", "201157.015000", "201157.994000", "201158.973000", "201200.025000", "201200.986000", "201201.973000", "201202.979000", "201203.970000", "201204.997000", "201205.972000", "201206.991000", "201207.972000", "201209.002000", "201209.987000", "201211.039000", "201211.979000", "201212.984000", "201213.976000", "201214.994000", "201215.980000", "201216.983000", "201218.017000", "201219.025000", "201219.987000", "201220.982000", "201222.020000", "201223.062000", "201223.980000", "201225.006000", "201226.003000", "201226.992000", "201227.991000", "201228.971000", "201229.992000", "201230.983000", "201231.981000", "201232.978000", "201233.989000", "201235.002000", "201236.010000", "201236.991000", "201237.967000", "201238.993000", "201239.994000", "201241.010000", "201241.986000", "201243.013000", "201244.002000", "201244.967000", "201246.030000", "201247.030000", "201247.984000", "201248.993000", "201250.007000", "201250.972000", "201252.000000", "201252.985000", "201253.964000", "201254.983000", "201255.981000", "201256.966000", "201257.971000", "201258.989000", "201259.988000", "201300.969000", "201301.995000", "201302.981000", "201304.001000", "201305.034000", "201306.050000", "201307.033000", "201308.024000", "201308.988000", "201309.980000", "201311.044000", "201312.044000", "201312.995000", "201313.992000", "201314.992000", "201316.015000", "201316.981000", "201317.994000", "201318.985000", "201319.984000", "201321.013000", "201321.986000", "201322.983000", "201323.980000", "201324.996000", "201325.971000", "201326.969000", "201327.979000", "201329.011000", "201329.962000", "201330.995000", "201331.984000", "201332.995000", "201334.001000", "201335.001000", "201335.963000", "201336.988000", "201337.984000", "201338.996000", "201339.985000", "201341.001000", "201341.964000", "201342.974000", "201344.011000", "201344.993000", "201345.986000", "201346.977000", "201347.980000", "201348.977000", "201349.978000", "201350.986000", "201351.972000", "201353.038000", "201353.981000", "201355.051000", "201355.995000", "201356.978000", "201357.973000", "201358.993000", "201400.002000", "201401.050000", "201401.979000", "201403.003000", "201403.972000", "201404.995000", "201405.991000", "201406.990000", "201407.990000", "201408.953000", "201409.990000", "201411.008000", "201411.995000", "201412.971000", "201413.981000", "201414.979000", "201415.997000", "201416.989000", "201418.021000", "201419.020000", "201419.981000", "201420.979000", "201422.020000", "201422.986000", "201423.995000", "201424.983000", "201425.987000", "201427.004000", "201427.987000", "201428.987000", "201430.016000", "201430.987000", "201432.007000", "201432.988000", "201434.016000", "201434.976000", "201435.990000", "201436.991000", "201438.003000", "201438.994000", "201439.987000", "201440.993000", "201442.029000", "201442.997000", "201444.023000", "201444.996000", "201445.963000", "201447.001000", "201447.985000", "201448.993000", "201450.038000", "201450.981000", "201451.984000", "201452.995000", "201453.934000", "201454.983000", "201455.998000", "201456.992000", "201457.988000", "201458.982000", "201459.986000", "201500.968000", "201501.990000", "201503.004000", "201503.989000", "201504.963000", "201506.013000", "201506.991000", "201507.969000", "201509.032000", "201509.976000", "201510.973000", "201512.003000", "201512.983000", "201514.000000", "201514.948000", "201515.995000", "201516.974000", "201518.042000", "201519.048000", "201520.017000", "201521.019000", "201522.048000", "201523.026000", "201524.039000", "201524.995000", "201526.026000", "201527.039000", "201528.051000", "201529.022000", "201530.080000", "201531.027000", "201532.026000", "201533.039000", "201533.989000", "201535.027000", "201536.004000", "201537.041000", "201538.037000", "201539.068000", "201540.030000", "201541.033000", "201542.037000", "201543.032000", "201544.045000", "201545.039000", "201546.031000", "201547.033000", "201548.025000", "201549.043000", "201550.060000", "201551.021000", "201552.019000", "201553.057000", "201554.010000", "201555.042000"],
