{
  "AcquisitionMatrixPE": 96,
  "AcquisitionNumber": 1,
  "AcquisitionTime": "20:16:35.447500",
  "BandwidthPerPixelPhaseEncode": 18.939,
  "BaseResolution": 96,
  "BodyPartExamined": "BRAIN",
  "ConsistencyInfo": "N4_VE11C_LATEST_20160120",
  "ConversionSoftware": "dcm2niix",
  "ConversionSoftwareVersion": "v1.0.20190902",
  "DerivedVendorReportedEchoSpacing": 0.000550011,
  "DeviceSerialNumber": "66112",
  "DwellTime": 2.2e-06,
  "EchoTime": 0.033,
  "EchoTrainLength": 96,
  "EffectiveEchoSpacing": 0.000550011,
  "FlipAngle": 59,
  "ImageOrientationPatientDICOM": [0.996976, 0.0527895, 0.0570293, -0.0557396, 0.997119, 0.0514398],
  "ImageType": [
    "ORIGINAL",
    "PRIMARY",
    "FMRI",
    "NONE",
    "ND",
    "NORM",
    "MOSAIC"
],
  "ImagingFrequency": 123.252,
  "InPlanePhaseEncodingDirectionDICOM": "COL",
  "InstitutionAddress": "Maynard_3_Hanover_NH_US_03755",
  "InstitutionName": "Dartmouth_College_-_PBS",
  "InstitutionalDepartmentName": "Department",
  "MRAcquisitionType": "2D",
  "MagneticFieldStrength": 3,
  "Manufacturer": "Siemens",
  "ManufacturersModelName": "Prisma",
  "Modality": "MR",
  "MultibandAccelerationFactor": 4,
  "PartialFourier": 1,
  "PatientPosition": "HFS",
  "PercentPhaseFOV": 100,
  "PhaseEncodingDirection": "j-",
  "PhaseEncodingSteps": 96,
  "PhaseResolution": 1,
  "PixelBandwidth": 2365,
  "ProcedureStepDescription": "Gobbini_Matteo_1037_budapest",
  "ProtocolName": "func_run-04_task-movie",
  "PulseSequenceDetails": "%SiemensSeq%_ep2d_bold",
  "ReceiveCoilActiveElements": "HEA;HEP",
  "ReceiveCoilName": "Head_32",
  "ReconMatrixPE": 96,
  "RefLinesPE": 12,
  "RepetitionTime": 1,
  "SAR": 0.0658042,
  "ScanOptions": "FS",
  "ScanningSequence": "EP",
  "SequenceName": "_epfid2d1_96",
  "SequenceVariant": "SK",
  "SeriesDescription": "func_run-04_task-movie",
  "SeriesNumber": 29,
  "ShimSetting": [4169, -7725, -7269, 652, -17, -224, 121, 132],
  "SliceThickness": 2.5,
  "SliceTiming": [0.735, 0, 0.49, 0.0825, 0.5725, 0.165, 0.655, 0.3275, 0.8175, 0.41, 0.9, 0.245, 0.735, 0, 0.49, 0.0825, 0.5725, 0.165, 0.655, 0.3275, 0.8175, 0.41, 0.9, 0.245, 0.735, 0, 0.49, 0.0825, 0.5725, 0.165, 0.655, 0.3275, 0.8175, 0.41, 0.9, 0.245, 0.735, 0, 0.49, 0.0825, 0.5725, 0.165, 0.655, 0.3275, 0.8175, 0.41, 0.9, 0.245],
  "SoftwareVersions": "syngo_MR_E11",
  "SpacingBetweenSlices": 2.5,
  "StationName": "AWP66112",
  "TaskName": "movie",
  "TotalReadoutTime": 0.0522511,
  "TxRefAmp": 271.448,
  "dcmmeta_affine": [
    [-2.4924397468566895, -0.13934902846813202, 0.13537386059761047, 130.6332244873047],
    [-0.13197383284568787, 2.492798328399658, 0.13615766167640686, -104.76751708984375],
    [0.142573282122612, -0.12859958410263062, 2.4926159381866455, -65.32911682128906],
    [0.0, 0.0, 0.0, 1.0]
],
  "dcmmeta_reorient_transform": [
    [0.0, -1.0, 0.0, 95.0],
    [1.0, 0.0, 0.0, 0.0],
    [0.0, 0.0, 1.0, 0.0],
    [0.0, 0.0, 0.0, 1.0]
],
  "dcmmeta_shape": [96, 96, 48, 618],
  "dcmmeta_slice_dim": 2,
  "dcmmeta_version": 0.6,
  "global": {
    "const": {
      "AccessionNumber": "A001147",
      "AcquisitionMatrix": [96, 0, 0, 96],
      "AngioFlag": "N",
      "BitsAllocated": 16,
      "BitsStored": 12,
      "BodyPartExamined": "BRAIN",
      "Columns": 672,
      "EchoNumbers": 1,
      "EchoTime": 33.0,
      "EchoTrainLength": 96,
      "FlipAngle": 59.0,
      "HighBit": 11,
      "ImageOrientationPatient": [0.99697588877746, 0.05278953475706, 0.05702931015301, -0.0557396087908, 0.99711937064817, 0.05143983563393],
      "ImagePositionPatient": [-795.08518863633, -887.98274567712, -155.64385998789],
      "ImageType": [
        "ORIGINAL",
        "PRIMARY",
        "FMRI",
        "NONE",
        "ND",
        "NORM",
        "MOSAIC"
],
      "ImagedNucleus": "1H",
      "ImagingFrequency": 123.252317,
      "InPlanePhaseEncodingDirection": "COL",
      "MRAcquisitionType": "2D",
      "MagneticFieldStrength": 3.0,
      "Manufacturer": "SIEMENS",
      "ManufacturerModelName": "Prisma",
      "Modality": "MR",
      "NumberOfAverages": 1.0,
      "NumberOfPhaseEncodingSteps": 96,
      "PercentPhaseFieldOfView": 100.0,
      "PercentSampling": 100.0,
      "PerformedProcedureStepStartTime": "193049.501000",
      "PhotometricInterpretation": "MONOCHROME2",
      "PixelBandwidth": 2365.0,
      "PixelRepresentation": 0,
      "PixelSpacing": [2.5, 2.5],
      "ProtocolName": "func_run-04_task-movie",
      "RepetitionTime": 1000.0,
      "Rows": 672,
      "SAR": 0.0658041549675,
      "SamplesPerPixel": 1,
      "ScanOptions": "FS",
      "ScanningSequence": "EP",
      "SequenceName": "*epfid2d1_96",
      "SequenceVariant": "SK",
      "SeriesDescription": "func_run-04_task-movie",
      "SeriesNumber": 29,
      "SeriesTime": "201636.486000",
      "SliceLocation": -63.768391204577,
      "SliceThickness": 2.5,
      "SmallestImagePixelValue": 0,
      "SoftwareVersions": "syngo MR E11",
      "SpacingBetweenSlices": 2.4999999490533,
      "SpecificCharacterSet": "ISO_IR 100",
      "StudyID": "1",
      "StudyTime": "193049.446000",
      "TransmitCoilName": "Body",
      "VariableFlipAngleFlag": "N",
      "WindowCenterWidthExplanation": "Algo1",
      "dBdt": 0.0},
    "slices": {}
  },
  "time": {
    "samples": {
      "AcquisitionNumber": [1, 2, 3, 4, 5, 6, 7, 8, 9, 10, 11, 12, 13, 14, 15, 16, 17, 18, 19, 20, 21, 22, 23, 24, 25, 26, 27, 28, 29, 30, 31, 32, 33, 34, 35, 36, 37, 38, 39, 40, 41, 42, 43, 44, 45, 46, 47, 48, 49, 50, 51, 52, 53, 54, 55, 56, 57, 58, 59, 60, 61, 62, 63, 64, 65, 66, 67, 68, 69, 70, 71, 72, 73, 74, 75, 76, 77, 78, 79, 80, 81, 82, 83, 84, 85, 86, 87, 88, 89, 90, 91, 92, 93, 94, 95, 96, 97, 98, 99, 100, 101, 102, 103, 104, 105, 106, 107, 108, 109, 110, 111, 112, 113, 114, 115, 116, 117, 118, 119, 120, 121, 122, 123, 124, 125, 126, 127, 128, 129, 130, 131, 132, 133, 134, 135, 136, 137, 138, 139, 140, 141, 142, 143, 144, 145, 146, 147, 148, 149, 150, 151, 152, 153, 154, 155, 156, 157, 158, 159, 160, 161, 162, 163, 164, 165, 166, 167, 168, 169, 170, 171, 172, 173, 174, 175, 176, 177, 178, 179, 180, 181, 182, 183, 184, 185, 186, 187, 188, 189, 190, 191, 192, 193, 194, 195, 196, 197, 198, 199, 200, 201, 202, 203, 204, 205, 206, 207, 208, 209, 210, 211, 212, 213, 214, 215, 216, 217, 218, 219, 220, 221, 222, 223, 224, 225, 226, 227, 228, 229, 230, 231, 232, 233, 234, 235, 236, 237, 238, 239, 240, 241, 242, 243, 244, 245, 246, 247, 248, 249, 250, 251, 252, 253, 254, 255, 256, 257, 258, 259, 260, 261, 262, 263, 264, 265, 266, 267, 268, 269, 270, 271, 272, 273, 274, 275, 276, 277, 278, 279, 280, 281, 282, 283, 284, 285, 286, 287, 288, 289, 290, 291, 292, 293, 294, 295, 296, 297, 298, 299, 300, 301, 302, 303, 304, 305, 306, 307, 308, 309, 310, 311, 312, 313, 314, 315, 316, 317, 318, 319, 320, 321, 322, 323, 324, 325, 326, 327, 328, 329, 330, 331, 332, 333, 334, 335, 336, 337, 338, 339, 340, 341, 342, 343, 344, 345, 346, 347, 348, 349, 350, 351, 352, 353, 354, 355, 356, 357, 358, 359, 360, 361, 362, 363, 364, 365, 366, 367, 368, 369, 370, 371, 372, 373, 374, 375, 376, 377, 378, 379, 380, 381, 382, 383, 384, 385, 386, 387, 388, 389, 390, 391, 392, 393, 394, 395, 396, 397, 398, 399, 400, 401, 402, 403, 404, 405, 406, 407, 408, 409, 410, 411, 412, 413, 414, 415, 416, 417, 418, 419, 420, 421, 422, 423, 424, 425, 426, 427, 428, 429, 430, 431, 432, 433, 434, 435, 436, 437, 438, 439, 440, 441, 442, 443, 444, 445, 446, 447, 448, 449, 450, 451, 452, 453, 454, 455, 456, 457, 458, 459, 460, 461, 462, 463, 464, 465, 466, 467, 468, 469, 470, 471, 472, 473, 474, 475, 476, 477, 478, 479, 480, 481, 482, 483, 484, 485, 486, 487, 488, 489, 490, 491, 492, 493, 494, 495, 496, 497, 498, 499, 500, 501, 502, 503, 504, 505, 506, 507, 508, 509, 510, 511, 512, 513, 514, 515, 516, 517, 518, 519, 520, 521, 522, 523, 524, 525, 526, 527, 528, 529, 530, 531, 532, 533, 534, 535, 536, 537, 538, 539, 540, 541, 542, 543, 544, 545, 546, 547, 548, 549, 550, 551, 552, 553, 554, 555, 556, 557, 558, 559, 560, 561, 562, 563, 564, 565, 566, 567, 568, 569, 570, 571, 572, 573, 574, 575, 576, 577, 578, 579, 580, 581, 582, 583, 584, 585, 586, 587, 588, 589, 590, 591, 592, 593, 594, 595, 596, 597, 598, 599, 600, 601, 602, 603, 604, 605, 606, 607, 608, 609, 610, 611, 612, 613, 614, 615, 616, 617, 618],
      "AcquisitionTime": ["201635.447500", "201636.447500", "201637.447500", "201638.447500", "201639.447500", "201640.447500", "201641.447500", "201642.447500", "201643.447500", "201644.447500", "201645.447500", "201646.447500", "201647.447500", "201648.447500", "201649.447500", "201650.447500", "201651.447500", "201652.447500", "201653.447500", "201654.447500", "201655.447500", "201656.447500", "201657.447500", "201658.447500", "201659.447500", "201700.447500", "201701.447500", "201702.447500", "201703.447500", "201704.447500", "201705.447500", "201706.447500", "201707.447500", "201708.447500", "201709.447500", "201710.447500", "201711.447500", "201712.447500", "201713.447500", "201714.447500", "201715.447500", "201716.447500", "201717.447500", "201718.447500", "201719.447500", "201720.447500", "201721.447500", "201722.447500", "201723.447500", "201724.447500", "201725.447500", "201726.447500", "201727.447500", "201728.447500", "201729.447500", "201730.447500", "201731.447500", "201732.447500", "201733.447500", "201734.447500", "201735.447500", "201736.447500", "201737.447500", "201738.447500", "201739.447500", "201740.447500", "201741.447500", "201742.447500", "201743.447500", "201744.447500", "201745.447500", "201746.447500", "201747.447500", "201748.447500", "201749.447500", "201750.447500", "201751.447500", "201752.447500", "201753.447500", "201754.447500", "201755.447500", "201756.447500", "201757.447500", "201758.447500", "201759.447500", "201800.447500", "201801.447500", "201802.447500", "201803.447500", "201804.447500", "201805.447500", "201806.447500", "201807.447500", "201808.447500", "201809.447500", "201810.447500", "201811.447500", "201812.447500", "201813.447500", "201814.447500", "201815.447500", "201816.447500", "201817.447500", "201818.447500", "201819.447500", "201820.447500", "201821.447500", "201822.447500", "201823.447500", "201824.447500", "201825.447500", "201826.447500", "201827.447500", "201828.447500", "201829.447500", "201830.447500", "201831.447500", "201832.447500", "201833.447500", "201834.447500", "201835.447500", "201836.447500", "201837.447500", "201838.447500", "201839.447500", "201840.447500", "201841.447500", "201842.447500", "201843.447500", "201844.447500", "201845.447500", "201846.447500", "201847.447500", "201848.447500", "201849.447500", "201850.447500", "201851.447500", "201852.447500", "201853.447500", "201854.447500", "201855.447500", "201856.447500", "201857.447500", "201858.447500", "201859.447500", "201900.447500", "201901.447500", "201902.447500", "201903.447500", "201904.447500", "201905.447500", "201906.447500", "201907.447500", "201908.447500", "201909.447500", "201910.447500", "201911.447500", "201912.447500", "201913.447500", "201914.447500", "201915.447500", "201916.447500", "201917.447500", "201918.447500", "201919.447500", "201920.447500", "201921.447500", "201922.447500", "201923.447500", "201924.447500", "201925.447500", "201926.447500", "201927.447500", "201928.447500", "201929.447500", "201930.447500", "201931.447500", "201932.447500", "201933.447500", "201934.447500", "201935.447500", "201936.447500", "201937.447500", "201938.447500", "201939.447500", "201940.447500", "201941.447500", "201942.447500", "201943.447500", "201944.447500", "201945.447500", "201946.447500", "201947.447500", "201948.447500", "201949.447500", "201950.447500", "201951.447500", "201952.447500", "201953.447500", "201954.447500", "201955.447500", "201956.447500", "201957.447500", "201958.447500", "201959.447500", "202000.447500", "202001.447500", "202002.447500", "202003.447500", "202004.447500", "202005.447500", "202006.447500", "202007.447500", "202008.447500", "202009.447500", "202010.447500", "202011.447500", "202012.447500", "202013.447500", "202014.447500", "202015.447500", "202016.447500", "202017.447500", "202018.447500", "202019.447500", "202020.447500", "202021.447500", "202022.447500", "202023.447500", "202024.447500", "202025.447500", "202026.447500", "202027.447500", "202028.447500", "202029.447500", "202030.447500", "202031.447500", "202032.447500", "202033.447500", "202034.447500", "202035.447500", "202036.447500", "202037.447500", "202038.447500", "202039.447500", "202040.447500", "202041.447500", "202042.447500", "202043.447500", "202044.447500", "202045.447500", "202046.447500", "202047.447500", "202048.447500", "202049.447500", "202050.447500", "202051.447500", "202052.447500", "202053.447500", "202054.447500", "202055.447500", "202056.447500", "202057.447500", "202058.447500", "202059.447500", "202100.447500", "202101.447500", "202102.447500", "202103.447500", "202104.447500", "202105.447500", "202106.447500", "202107.447500", "202108.447500", "202109.447500", "202110.447500", "202111.447500", "202112.447500", "202113.447500", "202114.447500", "202115.447500", "202116.447500", "202117.447500", "202118.447500", "202119.447500", "202120.447500", "202121.447500", "202122.447500", "202123.447500", "202124.447500", "202125.447500", "202126.447500", "202127.447500", "202128.447500", "202129.447500", "202130.447500", "202131.447500", "202132.447500", "202133.447500", "202134.447500", "202135.447500", "202136.447500", "202137.447500", "202138.447500", "202139.447500", "202140.447500", "202141.447500", "202142.447500", "202143.447500", "202144.447500", "202145.447500", "202146.447500", "202147.447500", "202148.447500", "202149.447500", "202150.447500", "202151.447500", "202152.447500", "202153.447500", "202154.447500", "202155.447500", "202156.447500", "202157.447500", "202158.447500", "202159.447500", "202200.447500", "202201.447500", "202202.447500", "202203.447500", "202204.447500", "202205.447500", "202206.447500", "202207.447500", "202208.447500", "202209.447500", "202210.447500", "202211.447500", "202212.447500", "202213.447500", "202214.447500", "202215.447500", "202216.447500", "202217.447500", "202218.447500", "202219.447500", "202220.447500", "202221.447500", "202222.447500", "202223.447500", "202224.447500", "202225.447500", "202226.447500", "202227.447500", "202228.447500", "202229.447500", "202230.447500", "202231.447500", "202232.447500", "202233.447500", "202234.447500", "202235.447500", "202236.447500", "202237.447500", "202238.447500", "202239.447500", "202240.447500", "202241.447500", "202242.447500", "202243.447500", "202244.447500", "202245.447500", "202246.447500", "202247.447500", "202248.447500", "202249.447500", "202250.447500", "202251.447500", "202252.447500", "202253.447500", "202254.447500", "202255.447500", "202256.447500", "202257.447500", "202258.447500", "202259.447500", "202300.447500", "202301.447500", "202302.447500", "202303.447500", "202304.447500", "202305.447500", "202306.447500", "202307.447500", "202308.447500", "202309.447500", "202310.447500", "202311.447500", "202312.447500", "202313.447500", "202314.447500", "202315.447500", "202316.447500", "202317.447500", "202318.447500", "202319.447500", "202320.447500", "202321.447500", "202322.447500", "202323.447500", "202324.447500", "202325.447500", "202326.447500", "202327.447500", "202328.447500", "202329.447500", "202330.447500", "202331.447500", "202332.447500", "202333.447500", "202334.447500", "202335.447500", "202336.447500", "202337.447500", "202338.447500", "202339.447500", "202340.447500", "202341.447500", "202342.447500", "202343.447500", "202344.447500", "202345.447500", "202346.447500", "202347.447500", "202348.447500", "202349.447500", "202350.447500", "202351.447500", "202352.447500", "202353.447500", "202354.447500", "202355.447500", "202356.447500", "202357.447500", "202358.447500", "202359.447500", "202400.447500", "202401.447500", "202402.447500", "202403.447500", "202404.447500", "202405.447500", "202406.447500", "202407.447500", "202408.447500", "202409.447500", "202410.447500", "202411.447500", "202412.447500", "202413.447500", "202414.447500", "202415.447500", "202416.447500", "202417.447500", "202418.447500", "202419.447500", "202420.447500", "202421.447500", "202422.447500", "202423.447500", "202424.447500", "202425.447500", "202426.447500", "202427.447500", "202428.447500", "202429.447500", "202430.447500", "202431.447500", "202432.447500", "202433.447500", "202434.447500", "202435.447500", "202436.447500", "202437.447500", "202438.447500", "202439.447500", "202440.447500", "202441.447500", "202442.447500", "202443.447500", "202444.447500", "202445.447500", "202446.447500", "202447.447500", "202448.447500", "202449.447500", "202450.447500", "202451.447500", "202452.447500", "202453.447500", "202454.447500", "202455.447500", "202456.447500", "202457.447500", "202458.447500", "202459.447500", "202500.447500", "202501.447500", "202502.447500", "202503.447500", "202504.447500", "202505.447500", "202506.447500", "202507.447500", "202508.447500", "202509.447500", "202510.447500", "202511.447500", "202512.447500", "202513.447500", "202514.447500", "202515.447500", "202516.447500", "202517.447500", "202518.447500", "202519.447500", "202520.447500", "202521.447500", "202522.447500", "202523.447500", "202524.447500", "202525.447500", "202526.447500", "202527.447500", "202528.447500", "202529.447500", "202530.447500", "202531.447500", "202532.447500", "202533.447500", "202534.447500", "202535.447500", "202536.447500", "202537.447500", "202538.447500", "202539.447500", "202540.447500", "202541.447500", "202542.447500", "202543.447500", "202544.447500", "202545.447500", "202546.447500", "202547.447500", "202548.447500", "202549.447500", "202550.447500", "202551.447500", "202552.447500", "202553.447500", "202554.447500", "202555.447500", "202556.447500", "202557.447500", "202558.447500", "202559.447500", "202600.447500", "202601.447500", "202602.447500", "202603.447500", "202604.447500", "202605.447500", "202606.447500", "202607.447500", "202608.447500", "202609.447500", "202610.447500", "202611.447500", "202612.447500", "202613.447500", "202614.447500", "202615.447500", "202616.447500", "202617.447500", "202618.447500", "202619.447500", "202620.447500", "202621.447500", "202622.447500", "202623.447500", "202624.447500", "202625.447500", "202626.447500", "202627.447500", "202628.447500", "202629.447500", "202630.447500", "202631.447500", "202632.447500", "202633.447500", "202634.447500", "202635.447500", "202636.447500", "202637.447500", "202638.447500", "202639.447500", "202640.447500", "202641.447500", "202642.447500", "202643.447500", "202644.447500", "202645.447500", "202646.447500", "202647.447500", "202648.447500", "202649.447500", "202650.447500", "202651.447500", "202652.447500"],
      "ContentTime": ["201636.490000", "201637.339000", "201638.359000", "201639.321000", "201640.319000", "201641.317000", "201642.339000", "201643.354000", "201644.307000", "201645.319000", "201646.325000", "201647.339000", "201648.320000", "201649.333000", "201650.302000", "201651.307000", "201652.352000", "201653.305000", "201654.353000", "201655.317000", "201656.322000", "201657.361000", "201658.363000", "201659.366000", "201700.320000", "201701.355000", "201702.356000", "201703.392000", "201704.331000", "201705.297000", "201706.282000", "201707.320000", "201708.310000", "201709.344000", "201710.319000", "201711.328000", "201712.301000", "201713.312000", "201714.288000", "201715.343000", "201716.393000", "201717.323000", "201718.311000", "201719.304000", "201720.305000", "201721.304000", "201722.336000", "201723.318000", "201724.284000", "201725.309000", "201726.302000", "201727.290000", "201728.324000", "201729.326000", "201730.301000", "201731.325000", "201732.335000", "201733.329000", "201734.313000", "201735.311000", "201736.328000", "201737.321000", "201738.306000", "201739.355000", "201740.334000", "201741.299000", "201742.335000", "201743.337000", "201744.373000", "201745.328000", "201746.362000", "201747.369000", "201748.328000", "201749.315000", "201750.305000", "201751.328000", "201752.321000", "201753.309000", "201754.309000", "201755.307000", "201756.307000", "201757.330000", "201758.339000", "201759.332000", "201800.336000", "201801.334000", "201802.311000", "201803.395000", "201804.309000", "201805.294000", "201806.324000", "201807.308000", "201808.299000", "201809.307000", "201810.343000", "201811.348000", "201812.277000", "201813.311000", "201814.306000", "201815.313000", "201816.339000", "201817.307000", "201818.326000", "201819.339000", "201820.326000", "201821.344000", "201822.314000", "201823.347000", "201824.290000", "201825.328000", "201826.299000", "201827.319000", "201828.334000", "201829.426000", "201830.353000", "201831.402000", "201832.395000", "201833.326000", "201834.363000", "201835.312000", "201836.304000", "201837.312000", "201838.346000", "201839.338000", "201840.331000", "201841.341000", "201842.327000", "201843.334000", "201844.322000", "201845.313000", "201846.335000", "201847.312000", "201848.323000", "201849.337000", "201850.322000", "201851.344000", "201852.344000", "201853.291000", "201854.324000", "201855.334000", "201856.288000", "201857.326000", "201858.372000", "201859.318000", "201900.305000", "201901.331000", "201902.362000", "201903.311000", "201904.333000", "201905.342000", "201906.309000", "201907.332000", "201908.357000", "201909.344000", "201910.336000", "201911.364000", "201912.329000", "201913.306000", "201914.390000", "201915.358000", "201916.347000", "201917.318000", "201918.318000", "201919.306000", "201920.325000", "201921.355000", "201922.338000", "201923.337000", "201924.316000", "201925.331000", "201926.313000", "201927.313000", "201928.345000", "201929.333000", "201930.329000", "201931.323000", "201932.315000", "201933.305000", "201934.340000", "201935.295000", "201936.310000", "201937.334000", "201938.322000", "201939.397000", "201940.353000", "201941.322000", "201942.323000", "201943.337000", "201944.315000", "201945.299000", "201946.326000", "201947.349000", "201948.323000", "201949.324000", "201950.311000", "201951.328000", "201952.342000", "201953.315000", "201954.308000", "201955.301000", "201956.315000", "201957.329000", "201958.320000", "201959.326000", "202000.325000", "202001.327000", "202002.310000", "202003.352000", "202004.329000", "202005.349000", "202006.322000", "202007.335000", "202008.304000", "202009.312000", "202010.363000", "202011.378000", "202012.334000", "202013.349000", "202014.306000", "202015.315000", "202016.327000", "202017.295000", "202018.322000", "202019.343000", "202020.308000", "202021.316000", "202022.296000", "202023.322000", "202024.326000", "202025.332000", "202026.311000", "202027.327000", "202028.324000", "202029.334000", "202030.327000", "202031.352000", "202032.303000", "202033.334000", "202034.324000", "202035.284000", "202036.327000", "202037.338000", "202038.336000", "202039.333000", "202040.327000", "202041.325000", "202042.337000", "202043.342000", "202044.355000", "202045.318000", "202046.319000", "202047.324000", "202048.281000", "202049.318000", "202050.301000", "202051.314000", "202052.361000", "202053.328000", "202054.315000", "202055.334000", "202056.308000", "202057.358000", "202058.318000", "202059.330000", "202100.336000", "202101.339000", "202102.336000", "202103.302000", "202104.341000", "202105.317000", "202106.331000", "202107.320000", "202108.364000", "202109.295000", "202110.316000", "202111.328000", "202112.319000", "202113.367000", "202114.351000", "202115.334000", "202116.348000", "202117.295000", "202118.338000", "202119.345000", "202120.337000", "202121.328000", "202122.311000", "202123.318000", "202124.342000", "202125.302000", "202126.316000", "202127.322000", "202128.333000", "202129.309000", "202130.329000", "202131.328000", "202132.315000", "202133.312000", "202134.319000", "202135.372000", "202136.302000", "202137.324000", "202138.298000", "202139.300000", "202140.311000", "202141.295000", "202142.343000", "202143.397000", "202144.297000", "202145.358000", "202146.319000", "202147.305000", "202148.285000", "202149.305000", "202150.327000", "202151.315000", "202152.326000", "202153.337000", "202154.331000", "202155.326000", "202156.314000", "202157.322000", "202158.305000", "202159.305000", "202200.315000", "202201.284000", "202202.321000", "202203.355000", "202204.354000", "202205.297000", "202206.328000", "202207.295000", "202208.273000", "202209.318000", "202210.321000", "202211.334000", "202212.317000", "202213.327000", "202214.324000", "202215.272000", "202216.332000", "202217.359000", "202218.366000", "202219.312000", "202220.308000", "202221.318000", "202222.323000", "202223.320000", "202224.307000", "202225.332000", "202226.321000", "202227.344000", "202228.338000", "202229.321000", "202230.303000", "202231.306000", "202232.317000", "202233.327000", "202234.330000", "202235.309000", "202236.350000", "202237.327000", "202238.336000", "202239.311000", "202240.310000", "202241.347000", "202242.316000", "202243.327000", "202244.323000", "202245.306000", "202246.325000", "202247.336000", "202248.321000", "202249.351000", "202250.319000", "202251.326000", "202252.311000", "202253.331000", "202254.328000", "202255.336000", "202256.345000", "202257.319000", "202258.315000", "202259.307000", "202300.309000", "202301.326000", "202302.324000", "202303.302000", "202304.309000", "202305.325000", "202306.312000", "202307.327000", "202308.290000", "202309.309000", "202310.320000", "202311.302000", "202312.316000", "202313.334000", "202314.301000", "202315.305000", "202316.320000", "202317.282000", "202318.339000", "202319.344000", "202320.334000", "202321.318000", "202322.357000", "202323.319000", "202324.330000", "202325.328000", "202326.284000", "202327.320000", "202328.338000", "202329.361000", "202330.320000", "202331.309000", "202332.337000", "202333.310000", "202334.323000", "202335.330000", "202336.352000", "202337.313000", "202338.339000", "202339.321000", "202340.310000", "202341.301000", "202342.300000", "202343.304000", "202344.307000", "202345.314000", "202346.318000", "202347.350000", "202348.324000", "202349.319000", "202350.339000", "202351.303000", "202352.314000", "202353.315000", "202354.303000", "202355.299000", "202356.297000", "202357.328000", "202358.305000", "202359.330000", "202400.331000", "202401.302000", "202402.302000", "202403.325000", "202404.324000", "202405.363000", "202406.319000", "202407.317000", "202408.364000", "202409.361000", "202410.314000", "202411.306000", "202412.328000", "202413.288000", "202414.331000", "202415.331000", "202416.329000", "202417.334000", "202418.318000", "202419.332000", "202420.307000", "202421.327000", "202422.339000", "202423.316000", "202424.319000", "202425.304000", "202426.327000", "202427.283000", "202428.316000", "202429.303000", "202430.318000", "202431.285000", "202432.343000", "202433.369000", "202434.401000", "202435.317000", "202436.306000", "202437.355000", "202438.301000", "202439.374000", "202440.338000", "202441.311000", "202442.337000", "202443.319000", "202444.315000", "202445.320000", "202446.322000", "202447.305000", "202448.327000", "202449.383000", "202450.307000", "202451.296000", "202452.343000", "202453.317000", "202454.325000", "202455.284000", "202456.301000", "202457.340000", "202458.283000", "202459.302000", "202500.337000", "202501.305000", "202502.325000", "202503.312000", "202504.318000", "202505.322000", "202506.309000", "202507.350000", "202508.309000", "202509.349000", "202510.306000", "202511.329000", "202512.309000", "202513.329000", "202514.304000", "202515.319000", "202516.336000", "202517.315000", "202518.330000", "202519.311000", "202520.325000", "202521.304000", "202522.358000", "202523.304000", "202524.313000", "202525.269000", "202526.332000", "202527.353000", "202528.327000", "202529.303000", "202530.304000", "202531.362000", "202532.310000", "202533.291000", "202534.303000", "202535.311000", "202536.309000", "202537.288000", "202538.336000", "202539.309000", "202540.307000", "202541.319000", "202542.311000", "202543.314000", "202544.334000", "202545.362000", "202546.317000", "202547.320000", "202548.335000", "202549.374000", "202550.318000", "202551.318000", "202552.307000", "202553.323000", "202554.293000", "202555.326000", "202556.311000", "202557.304000", "202558.314000", "202559.342000", "202600.323000", "202601.319000", "202602.324000", "202603.297000", "202604.300000", "202605.319000", "202606.304000", "202607.339000", "202608.302000", "202609.310000", "202610.317000", "202611.314000", "202612.311000", "202613.301000", "202614.316000", "202615.370000", "202616.384000", "202617.315000", "202618.296000", "202619.327000", "202620.340000", "202621.319000", "202622.313000", "202623.322000", "202624.317000", "202625.319000", "202626.310000", "202627.260000", "202628.311000", "202629.338000", "202630.313000", "202631.321000", "202632.317000", "202633.305000", "202634.325000", "202635.302000", "202636.338000", "202637.304000", "202638.304000", "202639.323000", "202640.303000", "202641.308000", "202642.313000", "202643.312000", "202644.327000", "202645.316000", "202646.359000", "202647.369000", "202648.357000", "202649.305000", "202650.332000", "202651.315000", "202652.330000", "202653.354000"],
