{
  "AcquisitionMatrixPE": 96,
  "AcquisitionNumber": 1,
  "AcquisitionTime": "19:58:4.955000",
  "BandwidthPerPixelPhaseEncode": 18.939,
  "BaseResolution": 96,
  "BodyPartExamined": "BRAIN",
  "ConsistencyInfo": "N4_VE11C_LATEST_20160120",
  "ConversionSoftware": "dcm2niix",
  "ConversionSoftwareVersion": "v1.0.20190902",
  "DerivedVendorReportedEchoSpacing": 0.000550011,
  "DeviceSerialNumber": "66112",
  "DwellTime": 2.2e-06,
  "EchoTime": 0.033,
  "EchoTrainLength": 96,
  "EffectiveEchoSpacing": 0.000550011,
  "FlipAngle": 59,
  "ImageOrientationPatientDICOM": [0.996976, 0.0527895, 0.0570293, -0.0557396, 0.997119, 0.0514398],
  "ImageType": [
    "ORIGINAL",
    "PRIMARY",
    "FMRI",
    "NONE",
    "ND",
    "NORM",
    "MOSAIC"
],
  "ImagingFrequency": 123.252,
  "InPlanePhaseEncodingDirectionDICOM": "COL",
  "InstitutionAddress": "Maynard_3_Hanover_NH_US_03755",
  "InstitutionName": "Dartmouth_College_-_PBS",
  "InstitutionalDepartmentName": "Department",
  "MRAcquisitionType": "2D",
  "MagneticFieldStrength": 3,
  "Manufacturer": "Siemens",
  "ManufacturersModelName": "Prisma",
  "Modality": "MR",
  "MultibandAccelerationFactor": 4,
  "PartialFourier": 1,
  "PatientPosition": "HFS",
  "PercentPhaseFOV": 100,
  "PhaseEncodingDirection": "j-",
  "PhaseEncodingSteps": 96,
  "PhaseResolution": 1,
  "PixelBandwidth": 2365,
  "ProcedureStepDescription": "Gobbini_Matteo_1037_budapest",
  "ProtocolName": "func_run-02_task-movie",
  "PulseSequenceDetails": "%SiemensSeq%_ep2d_bold",
  "ReceiveCoilActiveElements": "HEA;HEP",
  "ReceiveCoilName": "Head_32",
  "ReconMatrixPE": 96,
  "RefLinesPE": 12,
  "RepetitionTime": 1,
  "SAR": 0.0657215,
  "ScanOptions": "FS",
  "ScanningSequence": "EP",
  "SequenceName": "_epfid2d1_96",
  "SequenceVariant": "SK",
  "SeriesDescription": "func_run-02_task-movie",
  "SeriesNumber": 15,
  "ShimSetting": [4169, -7725, -7269, 652, -17, -224, 121, 132],
  "SliceThickness": 2.5,
  "SliceTiming": [0.735, 0, 0.49, 0.08, 0.57, 0.1625, 0.6525, 0.325, 0.815, 0.4075, 0.8975, 0.245, 0.735, 0, 0.49, 0.08, 0.57, 0.1625, 0.6525, 0.325, 0.815, 0.4075, 0.8975, 0.245, 0.735, 0, 0.49, 0.08, 0.57, 0.1625, 0.6525, 0.325, 0.815, 0.4075, 0.8975, 0.245, 0.735, 0, 0.49, 0.08, 0.57, 0.1625, 0.6525, 0.325, 0.815, 0.4075, 0.8975, 0.245],
  "SoftwareVersions": "syngo_MR_E11",
  "SpacingBetweenSlices": 2.5,
  "StationName": "AWP66112",
  "TaskName": "movie",
  "TotalReadoutTime": 0.0522511,
  "TxRefAmp": 271.448,
  "dcmmeta_affine": [
    [-2.4924397468566895, -0.13934902846813202, 0.13537386059761047, 130.6332244873047],
    [-0.13197383284568787, 2.492798328399658, 0.13615766167640686, -104.76751708984375],
    [0.142573282122612, -0.12859958410263062, 2.4926159381866455, -65.32911682128906],
    [0.0, 0.0, 0.0, 1.0]
],
  "dcmmeta_reorient_transform": [
    [0.0, -1.0, 0.0, 95.0],
    [1.0, 0.0, 0.0, 0.0],
    [0.0, 0.0, 1.0, 0.0],
    [0.0, 0.0, 0.0, 1.0]
],
  "dcmmeta_shape": [96, 96, 48, 498],
  "dcmmeta_slice_dim": 2,
  "dcmmeta_version": 0.6,
  "global": {
    "const": {
      "AccessionNumber": "A001147",
      "AcquisitionMatrix": [96, 0, 0, 96],
      "AngioFlag": "N",
      "BitsAllocated": 16,
      "BitsStored": 12,
      "BodyPartExamined": "BRAIN",
      "Columns": 672,
      "EchoNumbers": 1,
      "EchoTime": 33.0,
      "EchoTrainLength": 96,
      "FlipAngle": 59.0,
      "HighBit": 11,
      "ImageOrientationPatient": [0.99697588877746, 0.05278953475706, 0.05702931015301, -0.0557396087908, 0.99711937064817, 0.05143983563393],
      "ImagePositionPatient": [-795.08518863633, -887.98274567712, -155.64385998789],
      "ImageType": [
        "ORIGINAL",
        "PRIMARY",
        "FMRI",
        "NONE",
        "ND",
        "NORM",
        "MOSAIC"
],
      "ImagedNucleus": "1H",
      "ImagingFrequency": 123.252308,
      "InPlanePhaseEncodingDirection": "COL",
      "MRAcquisitionType": "2D",
      "MagneticFieldStrength": 3.0,
      "Manufacturer": "SIEMENS",
      "ManufacturerModelName": "Prisma",
      "Modality": "MR",
      "NumberOfAverages": 1.0,
      "NumberOfPhaseEncodingSteps": 96,
      "PercentPhaseFieldOfView": 100.0,
      "PercentSampling": 100.0,
      "PerformedProcedureStepStartTime": "193049.501000",
      "PhotometricInterpretation": "MONOCHROME2",
      "PixelBandwidth": 2365.0,
      "PixelRepresentation": 0,
      "PixelSpacing": [2.5, 2.5],
      "ProtocolName": "func_run-02_task-movie",
      "RepetitionTime": 1000.0,
      "Rows": 672,
      "SAR": 0.06572148177181,
      "SamplesPerPixel": 1,
      "ScanOptions": "FS",
      "ScanningSequence": "EP",
      "SequenceName": "*epfid2d1_96",
      "SequenceVariant": "SK",
      "SeriesDescription": "func_run-02_task-movie",
      "SeriesNumber": 15,
      "SeriesTime": "195806.065000",
      "SliceLocation": -63.768391204577,
      "SliceThickness": 2.5,
      "SmallestImagePixelValue": 0,
      "SoftwareVersions": "syngo MR E11",
      "SpacingBetweenSlices": 2.4999999490533,
      "SpecificCharacterSet": "ISO_IR 100",
      "StudyID": "1",
      "StudyTime": "193049.446000",
      "TransmitCoilName": "Body",
      "VariableFlipAngleFlag": "N",
      "WindowCenterWidthExplanation": "Algo1",
      "dBdt": 0.0},
    "slices": {}
  },
  "time": {
    "samples": {
      "AcquisitionNumber": [1, 2, 3, 4, 5, 6, 7, 8, 9, 10, 11, 12, 13, 14, 15, 16, 17, 18, 19, 20, 21, 22, 23, 24, 25, 26, 27, 28, 29, 30, 31, 32, 33, 34, 35, 36, 37, 38, 39, 40, 41, 42, 43, 44, 45, 46, 47, 48, 49, 50, 51, 52, 53, 54, 55, 56, 57, 58, 59, 60, 61, 62, 63, 64, 65, 66, 67, 68, 69, 70, 71, 72, 73, 74, 75, 76, 77, 78, 79, 80, 81, 82, 83, 84, 85, 86, 87, 88, 89, 90, 91, 92, 93, 94, 95, 96, 97, 98, 99, 100, 101, 102, 103, 104, 105, 106, 107, 108, 109, 110, 111, 112, 113, 114, 115, 116, 117, 118, 119, 120, 121, 122, 123, 124, 125, 126, 127, 128, 129, 130, 131, 132, 133, 134, 135, 136, 137, 138, 139, 140, 141, 142, 143, 144, 145, 146, 147, 148, 149, 150, 151, 152, 153, 154, 155, 156, 157, 158, 159, 160, 161, 162, 163, 164, 165, 166, 167, 168, 169, 170, 171, 172, 173, 174, 175, 176, 177, 178, 179, 180, 181, 182, 183, 184, 185, 186, 187, 188, 189, 190, 191, 192, 193, 194, 195, 196, 197, 198, 199, 200, 201, 202, 203, 204, 205, 206, 207, 208, 209, 210, 211, 212, 213, 214, 215, 216, 217, 218, 219, 220, 221, 222, 223, 224, 225, 226, 227, 228, 229, 230, 231, 232, 233, 234, 235, 236, 237, 238, 239, 240, 241, 242, 243, 244, 245, 246, 247, 248, 249, 250, 251, 252, 253, 254, 255, 256, 257, 258, 259, 260, 261, 262, 263, 264, 265, 266, 267, 268, 269, 270, 271, 272, 273, 274, 275, 276, 277, 278, 279, 280, 281, 282, 283, 284, 285, 286, 287, 288, 289, 290, 291, 292, 293, 294, 295, 296, 297, 298, 299, 300, 301, 302, 303, 304, 305, 306, 307, 308, 309, 310, 311, 312, 313, 314, 315, 316, 317, 318, 319, 320, 321, 322, 323, 324, 325, 326, 327, 328, 329, 330, 331, 332, 333, 334, 335, 336, 337, 338, 339, 340, 341, 342, 343, 344, 345, 346, 347, 348, 349, 350, 351, 352, 353, 354, 355, 356, 357, 358, 359, 360, 361, 362, 363, 364, 365, 366, 367, 368, 369, 370, 371, 372, 373, 374, 375, 376, 377, 378, 379, 380, 381, 382, 383, 384, 385, 386, 387, 388, 389, 390, 391, 392, 393, 394, 395, 396, 397, 398, 399, 400, 401, 402, 403, 404, 405, 406, 407, 408, 409, 410, 411, 412, 413, 414, 415, 416, 417, 418, 419, 420, 421, 422, 423, 424, 425, 426, 427, 428, 429, 430, 431, 432, 433, 434, 435, 436, 437, 438, 439, 440, 441, 442, 443, 444, 445, 446, 447, 448, 449, 450, 451, 452, 453, 454, 455, 456, 457, 458, 459, 460, 461, 462, 463, 464, 465, 466, 467, 468, 469, 470, 471, 472, 473, 474, 475, 476, 477, 478, 479, 480, 481, 482, 483, 484, 485, 486, 487, 488, 489, 490, 491, 492, 493, 494, 495, 496, 497, 498],
      "AcquisitionTime": ["195804.955000", "195805.955000", "195806.955000", "195807.955000", "195808.955000", "195809.955000", "195810.955000", "195811.955000", "195812.955000", "195813.955000", "195814.955000", "195815.955000", "195816.955000", "195817.955000", "195818.955000", "195819.955000", "195820.955000", "195821.955000", "195822.955000", "195823.955000", "195824.955000", "195825.955000", "195826.955000", "195827.955000", "195828.955000", "195829.955000", "195830.955000", "195831.955000", "195832.955000", "195833.955000", "195834.955000", "195835.955000", "195836.955000", "195837.955000", "195838.955000", "195839.955000", "195840.955000", "195841.955000", "195842.955000", "195843.955000", "195844.955000", "195845.955000", "195846.955000", "195847.955000", "195848.955000", "195849.955000", "195850.955000", "195851.955000", "195852.955000", "195853.955000", "195854.955000", "195855.955000", "195856.955000", "195857.955000", "195858.955000", "195859.955000", "195900.955000", "195901.955000", "195902.955000", "195903.955000", "195904.955000", "195905.955000", "195906.955000", "195907.955000", "195908.955000", "195909.955000", "195910.955000", "195911.955000", "195912.955000", "195913.955000", "195914.955000", "195915.955000", "195916.955000", "195917.955000", "195918.955000", "195919.955000", "195920.955000", "195921.955000", "195922.955000", "195923.955000", "195924.955000", "195925.955000", "195926.955000", "195927.955000", "195928.955000", "195929.955000", "195930.955000", "195931.955000", "195932.955000", "195933.955000", "195934.955000", "195935.955000", "195936.955000", "195937.955000", "195938.955000", "195939.955000", "195940.955000", "195941.955000", "195942.955000", "195943.955000", "195944.955000", "195945.955000", "195946.955000", "195947.955000", "195948.955000", "195949.955000", "195950.955000", "195951.955000", "195952.955000", "195953.955000", "195954.955000", "195955.955000", "195956.955000", "195957.955000", "195958.955000", "195959.955000", "200000.955000", "200001.955000", "200002.955000", "200003.955000", "200004.955000", "200005.955000", "200006.955000", "200007.955000", "200008.955000", "200009.955000", "200010.955000", "200011.955000", "200012.955000", "200013.955000", "200014.955000", "200015.955000", "200016.955000", "200017.955000", "200018.955000", "200019.955000", "200020.955000", "200021.955000", "200022.955000", "200023.955000", "200024.955000", "200025.955000", "200026.955000", "200027.955000", "200028.955000", "200029.955000", "200030.955000", "200031.955000", "200032.955000", "200033.955000", "200034.955000", "200035.955000", "200036.955000", "200037.955000", "200038.955000", "200039.955000", "200040.955000", "200041.955000", "200042.955000", "200043.955000", "200044.955000", "200045.955000", "200046.955000", "200047.955000", "200048.955000", "200049.955000", "200050.955000", "200051.955000", "200052.955000", "200053.955000", "200054.955000", "200055.955000", "200056.955000", "200057.955000", "200058.955000", "200059.955000", "200100.955000", "200101.955000", "200102.955000", "200103.955000", "200104.955000", "200105.955000", "200106.955000", "200107.955000", "200108.955000", "200109.955000", "200110.955000", "200111.955000", "200112.955000", "200113.955000", "200114.955000", "200115.955000", "200116.955000", "200117.955000", "200118.955000", "200119.955000", "200120.955000", "200121.955000", "200122.955000", "200123.955000", "200124.955000", "200125.955000", "200126.955000", "200127.955000", "200128.955000", "200129.955000", "200130.955000", "200131.955000", "200132.955000", "200133.955000", "200134.955000", "200135.955000", "200136.955000", "200137.955000", "200138.955000", "200139.955000", "200140.955000", "200141.955000", "200142.955000", "200143.955000", "200144.955000", "200145.955000", "200146.955000", "200147.955000", "200148.955000", "200149.955000", "200150.955000", "200151.955000", "200152.955000", "200153.955000", "200154.955000", "200155.955000", "200156.955000", "200157.955000", "200158.955000", "200159.955000", "200200.955000", "200201.955000", "200202.955000", "200203.955000", "200204.955000", "200205.955000", "200206.955000", "200207.955000", "200208.955000", "200209.955000", "200210.955000", "200211.955000", "200212.955000", "200213.955000", "200214.955000", "200215.955000", "200216.955000", "200217.955000", "200218.955000", "200219.955000", "200220.955000", "200221.955000", "200222.955000", "200223.955000", "200224.955000", "200225.955000", "200226.955000", "200227.955000", "200228.955000", "200229.955000", "200230.955000", "200231.955000", "200232.955000", "200233.955000", "200234.955000", "200235.955000", "200236.955000", "200237.955000", "200238.955000", "200239.955000", "200240.955000", "200241.955000", "200242.955000", "200243.955000", "200244.955000", "200245.955000", "200246.955000", "200247.955000", "200248.955000", "200249.955000", "200250.955000", "200251.955000", "200252.955000", "200253.955000", "200254.955000", "200255.955000", "200256.955000", "200257.955000", "200258.955000", "200259.955000", "200300.955000", "200301.955000", "200302.955000", "200303.955000", "200304.955000", "200305.955000", "200306.955000", "200307.955000", "200308.955000", "200309.955000", "200310.955000", "200311.955000", "200312.955000", "200313.955000", "200314.955000", "200315.955000", "200316.955000", "200317.955000", "200318.955000", "200319.955000", "200320.955000", "200321.955000", "200322.955000", "200323.955000", "200324.955000", "200325.955000", "200326.955000", "200327.955000", "200328.955000", "200329.955000", "200330.955000", "200331.955000", "200332.955000", "200333.955000", "200334.955000", "200335.955000", "200336.955000", "200337.955000", "200338.955000", "200339.955000", "200340.955000", "200341.955000", "200342.955000", "200343.955000", "200344.955000", "200345.955000", "200346.955000", "200347.955000", "200348.955000", "200349.955000", "200350.955000", "200351.955000", "200352.955000", "200353.955000", "200354.955000", "200355.955000", "200356.955000", "200357.955000", "200358.955000", "200359.955000", "200400.955000", "200401.955000", "200402.955000", "200403.955000", "200404.955000", "200405.955000", "200406.955000", "200407.955000", "200408.955000", "200409.955000", "200410.955000", "200411.955000", "200412.955000", "200413.955000", "200414.955000", "200415.955000", "200416.955000", "200417.955000", "200418.955000", "200419.955000", "200420.955000", "200421.955000", "200422.955000", "200423.955000", "200424.955000", "200425.955000", "200426.955000", "200427.955000", "200428.955000", "200429.955000", "200430.955000", "200431.955000", "200432.955000", "200433.955000", "200434.955000", "200435.955000", "200436.955000", "200437.955000", "200438.955000", "200439.955000", "200440.955000", "200441.955000", "200442.955000", "200443.955000", "200444.955000", "200445.955000", "200446.955000", "200447.955000", "200448.955000", "200449.955000", "200450.955000", "200451.955000", "200452.955000", "200453.955000", "200454.955000", "200455.955000", "200456.955000", "200457.955000", "200458.955000", "200459.955000", "200500.955000", "200501.955000", "200502.955000", "200503.955000", "200504.955000", "200505.955000", "200506.955000", "200507.955000", "200508.955000", "200509.955000", "200510.955000", "200511.955000", "200512.955000", "200513.955000", "200514.955000", "200515.955000", "200516.955000", "200517.955000", "200518.955000", "200519.955000", "200520.955000", "200521.955000", "200522.955000", "200523.955000", "200524.955000", "200525.955000", "200526.955000", "200527.955000", "200528.955000", "200529.955000", "200530.955000", "200531.955000", "200532.955000", "200533.955000", "200534.955000", "200535.955000", "200536.955000", "200537.955000", "200538.955000", "200539.955000", "200540.955000", "200541.955000", "200542.955000", "200543.955000", "200544.955000", "200545.955000", "200546.955000", "200547.955000", "200548.955000", "200549.955000", "200550.955000", "200551.955000", "200552.955000", "200553.955000", "200554.955000", "200555.955000", "200556.955000", "200557.955000", "200558.955000", "200559.955000", "200600.955000", "200601.955000", "200602.955000", "200603.955000", "200604.955000", "200605.955000", "200606.955000", "200607.955000", "200608.955000", "200609.955000", "200610.955000", "200611.955000", "200612.955000", "200613.955000", "200614.955000", "200615.955000", "200616.955000", "200617.955000", "200618.955000", "200619.955000", "200620.955000", "200621.955000"],
      "ContentTime": ["195806.070000", "195806.965000", "195807.927000", "195808.927000", "195809.958000", "195810.959000", "195811.940000", "195812.917000", "195813.934000", "195814.912000", "195815.921000", "195816.982000", "195817.942000", "195818.946000", "195819.893000", "195820.929000", "195821.982000", "195822.919000", "195823.937000", "195824.944000", "195825.971000", "195826.924000", "195827.884000", "195828.931000", "195829.897000", "195830.942000", "195831.906000", "195832.932000", "195833.946000", "195834.917000", "195835.946000", "195836.924000", "195837.923000", "195838.914000", "195839.951000", "195840.934000", "195841.964000", "195842.963000", "195843.922000", "195844.926000", "195845.971000", "195846.951000", "195847.935000", "195848.902000", "195849.933000", "195850.910000", "195851.948000", "195852.937000", "195853.934000", "195854.934000", "195855.925000", "195856.924000", "195857.928000", "195858.926000", "195859.919000", "195900.917000", "195901.917000", "195902.915000", "195903.946000", "195904.951000", "195905.935000", "195906.917000", "195907.928000", "195908.964000", "195909.963000", "195910.931000", "195911.944000", "195912.944000", "195913.923000", "195914.913000", "195915.921000", "195916.890000", "195917.917000", "195918.920000", "195919.924000", "195920.957000", "195921.930000", "195922.918000", "195923.913000", "195924.949000", "195925.942000", "195926.918000", "195927.925000", "195928.957000", "195929.943000", "195930.922000", "195931.988000", "195932.941000", "195933.922000", "195934.917000", "195935.911000", "195936.919000", "195937.948000", "195938.907000", "195939.930000", "195940.947000", "195941.916000", "195942.923000", "195943.911000", "195944.936000", "195945.957000", "195947.008000", "195947.954000", "195948.945000", "195949.957000", "195950.969000", "195951.937000", "195952.913000", "195953.903000", "195954.941000", "195955.962000", "195956.934000", "195957.951000", "195958.950000", "195959.935000", "200000.936000", "200001.931000", "200002.964000", "200003.931000", "200004.939000", "200005.946000", "200006.935000", "200007.905000", "200008.960000", "200009.942000", "200010.925000", "200011.947000", "200012.954000", "200013.972000", "200014.936000", "200015.927000", "200016.924000", "200017.908000", "200018.955000", "200019.992000", "200020.975000", "200021.934000", "200022.962000", "200023.953000", "200024.955000", "200025.972000", "200026.922000", "200027.924000", "200028.924000", "200029.918000", "200030.932000", "200031.927000", "200032.933000", "200033.897000", "200034.962000", "200035.911000", "200036.915000", "200037.939000", "200038.958000", "200039.927000", "200040.920000", "200041.929000", "200042.900000", "200043.924000", "200044.909000", "200045.902000", "200046.942000", "200047.938000", "200048.915000", "200049.931000", "200050.934000", "200051.946000", "200052.928000", "200053.919000", "200054.936000", "200055.950000", "200056.980000", "200057.954000", "200058.951000", "200059.923000", "200100.898000", "200101.956000", "200102.907000", "200103.925000", "200104.950000", "200105.936000", "200106.909000", "200107.906000", "200108.921000", "200109.953000", "200110.954000", "200111.928000", "200112.949000", "200113.916000", "200114.927000", "200115.942000", "200116.992000", "200117.965000", "200118.910000", "200119.971000", "200120.905000", "200121.939000", "200122.957000", "200123.948000", "200124.897000", "200125.937000", "200126.974000", "200127.959000", "200128.934000", "200129.911000", "200130.929000", "200131.932000", "200132.943000", "200133.942000", "200134.927000", "200135.924000", "200136.931000", "200137.941000", "200138.934000", "200139.913000", "200140.953000", "200141.931000", "200142.938000", "200143.932000", "200144.982000", "200145.914000", "200146.928000", "200147.924000", "200148.974000", "200149.899000", "200150.930000", "200151.961000", "200152.926000", "200153.927000", "200154.923000", "200155.922000", "200156.949000", "200157.909000", "200158.909000", "200159.941000", "200200.940000", "200201.971000", "200202.917000", "200203.951000", "200204.937000", "200205.942000", "200206.931000", "200207.936000", "200208.914000", "200209.929000", "200210.938000", "200211.923000", "200212.937000", "200213.952000", "200214.927000", "200215.916000", "200216.930000", "200217.927000", "200218.931000", "200219.939000", "200220.948000", "200221.940000", "200222.921000", "200223.933000", "200224.926000", "200225.937000", "200226.904000", "200227.937000", "200228.947000", "200229.953000", "200230.943000", "200231.960000", "200232.911000", "200233.970000", "200234.926000", "200235.911000", "200236.929000", "200237.913000", "200238.934000", "200239.921000", "200240.920000", "200241.924000", "200242.931000", "200243.943000", "200244.926000", "200245.906000", "200246.923000", "200247.932000", "200248.886000", "200249.928000", "200250.927000", "200251.918000", "200252.944000", "200253.984000", "200254.924000", "200255.922000", "200256.912000", "200257.924000", "200258.988000", "200259.943000", "200300.931000", "200301.932000", "200302.927000", "200303.918000", "200304.935000", "200305.919000", "200306.956000", "200307.946000", "200308.940000", "200309.950000", "200310.959000", "200311.939000", "200312.932000", "200313.965000", "200314.917000", "200315.946000", "200316.932000", "200317.902000", "200318.936000", "200319.940000", "200320.928000", "200321.918000", "200322.924000", "200323.961000", "200324.932000", "200325.943000", "200326.930000", "200327.925000", "200328.912000", "200329.929000", "200330.941000", "200331.947000", "200332.937000", "200333.920000", "200334.920000", "200335.939000", "200336.941000", "200337.926000", "200338.943000", "200339.940000", "200340.935000", "200341.902000", "200342.911000", "200343.934000", "200344.935000", "200345.933000", "200346.969000", "200347.946000", "200348.933000", "200349.927000", "200350.952000", "200351.917000", "200352.937000", "200353.935000", "200354.922000", "200355.931000", "200356.936000", "200357.968000", "200358.921000", "200359.918000", "200400.972000", "200401.919000", "200402.948000", "200403.934000", "200404.941000", "200405.932000", "200406.951000", "200407.931000", "200408.934000", "200409.919000", "200410.939000", "200411.943000", "200412.942000", "200413.902000", "200414.920000", "200415.936000", "200416.875000", "200417.933000", "200418.953000", "200419.942000", "200420.983000", "200421.927000", "200422.914000", "200423.927000", "200424.937000", "200425.916000", "200426.946000", "200427.918000", "200428.941000", "200429.906000", "200430.911000", "200431.936000", "200432.923000", "200433.927000", "200434.908000", "200435.939000", "200436.921000", "200437.906000", "200438.923000", "200439.934000", "200440.921000", "200441.931000", "200442.927000", "200443.923000", "200444.914000", "200445.913000", "200446.933000", "200447.926000", "200448.896000", "200449.960000", "200450.949000", "200451.931000", "200452.890000", "200453.899000", "200454.922000", "200455.907000", "200456.938000", "200457.946000", "200458.934000", "200459.898000", "200500.919000", "200501.914000", "200502.896000", "200503.936000", "200504.880000", "200505.916000", "200506.912000", "200508.001000", "200508.916000", "200509.939000", "200510.948000", "200511.989000", "200512.970000", "200513.933000", "200514.960000", "200515.922000", "200516.959000", "200517.958000", "200518.927000", "200519.939000", "200520.943000", "200521.957000", "200523.005000", "200523.922000", "200524.942000", "200525.947000", "200526.925000", "200527.927000", "200528.918000", "200529.915000", "200530.949000", "200531.910000", "200532.937000", "200533.903000", "200534.906000", "200535.933000", "200536.929000", "200537.929000", "200538.924000", "200539.919000", "200540.928000", "200541.993000", "200542.904000", "200543.892000", "200544.896000", "200545.926000", "200546.895000", "200547.919000", "200548.902000", "200549.958000", "200550.945000", "200551.933000", "200552.963000", "200553.930000", "200554.979000", "200555.960000", "200556.961000", "200557.869000", "200558.922000", "200559.932000", "200600.907000", "200601.919000", "200602.939000", "200603.952000", "200604.927000", "200605.942000", "200606.920000", "200607.918000", "200608.941000", "200609.938000", "200610.924000", "200611.915000", "200612.927000", "200613.986000", "200614.937000", "200615.927000", "200616.915000", "200617.985000", "200618.941000", "200619.939000", "200620.930000", "200621.929000", "200622.993000"],
