{
  "AcquisitionMatrixPE": 96,
  "AcquisitionNumber": 1,
  "AcquisitionTime": "17:08:10.310000",
  "BandwidthPerPixelPhaseEncode": 18.939,
  "BaseResolution": 96,
  "BodyPartExamined": "BRAIN",
  "ConsistencyInfo": "N4_VE11C_LATEST_20160120",
  "ConversionSoftware": "dcm2niix",
  "ConversionSoftwareVersion": "v1.0.20190902",
  "DerivedVendorReportedEchoSpacing": 0.000550011,
  "DeviceSerialNumber": "66112",
  "DwellTime": 2.2e-06,
  "EchoTime": 0.033,
  "EchoTrainLength": 96,
  "EffectiveEchoSpacing": 0.000550011,
  "FlipAngle": 59,
  "ImageOrientationPatientDICOM": [0.999348, 0.0305185, -0.019304, -0.0324534, 0.993459, -0.109477],
  "ImageType": [
    "ORIGINAL",
    "PRIMARY",
    "FMRI",
    "NONE",
    "ND",
    "NORM",
    "MOSAIC"
],
  "ImagingFrequency": 123.252,
  "InPlanePhaseEncodingDirectionDICOM": "COL",
  "InstitutionAddress": "Maynard_3_Hanover_NH_US_03755",
  "InstitutionName": "Dartmouth_College_-_PBS",
  "InstitutionalDepartmentName": "Department",
  "MRAcquisitionType": "2D",
  "MagneticFieldStrength": 3,
  "Manufacturer": "Siemens",
  "ManufacturersModelName": "Prisma",
  "Modality": "MR",
  "MultibandAccelerationFactor": 4,
  "PartialFourier": 1,
  "PatientPosition": "HFS",
  "PercentPhaseFOV": 100,
  "PhaseEncodingDirection": "j-",
  "PhaseEncodingSteps": 96,
  "PhaseResolution": 1,
  "PixelBandwidth": 2365,
  "ProcedureStepDescription": "Gobbini_Matteo_1037_budapest",
  "ProtocolName": "func_run-04_task-movie",
  "PulseSequenceDetails": "%SiemensSeq%_ep2d_bold",
  "ReceiveCoilActiveElements": "HEA;HEP",
  "ReceiveCoilName": "Head_32",
  "ReconMatrixPE": 96,
  "RefLinesPE": 12,
  "RepetitionTime": 1,
  "SAR": 0.050184,
  "ScanOptions": "FS",
  "ScanningSequence": "EP",
  "SequenceName": "_epfid2d1_96",
  "SequenceVariant": "SK",
  "SeriesDescription": "func_run-04_task-movie",
  "SeriesNumber": 29,
  "ShimSetting": [4142, -7688, -7297, 536, -41, 56, 72, 116],
  "SliceThickness": 2.5,
  "SliceTiming": [0.735, 0, 0.49, 0.0825, 0.5725, 0.165, 0.655, 0.3275, 0.8175, 0.41, 0.9, 0.245, 0.735, 0, 0.49, 0.0825, 0.5725, 0.165, 0.655, 0.3275, 0.8175, 0.41, 0.9, 0.245, 0.735, 0, 0.49, 0.0825, 0.5725, 0.165, 0.655, 0.3275, 0.8175, 0.41, 0.9, 0.245, 0.735, 0, 0.49, 0.0825, 0.5725, 0.165, 0.655, 0.3275, 0.8175, 0.41, 0.9, 0.245],
  "SoftwareVersions": "syngo_MR_E11",
  "SpacingBetweenSlices": 2.5,
  "StationName": "AWP66112",
  "TaskName": "movie",
  "TotalReadoutTime": 0.0522511,
  "TxRefAmp": 243.32,
  "dcmmeta_affine": [
    [-2.4983694553375244, -0.0811333954334259, -0.03959176689386368, 126.77255249023438],
    [-0.0762961283326149, 2.4836485385894775, -0.2750800549983978, -100.10101318359375],
    [-0.04826008528470993, 0.27369236946105957, 2.4845046997070312, -82.69857788085938],
    [0.0, 0.0, 0.0, 1.0]
],
  "dcmmeta_reorient_transform": [
    [0.0, -1.0, 0.0, 95.0],
    [1.0, 0.0, 0.0, 0.0],
    [0.0, 0.0, 1.0, 0.0],
    [0.0, 0.0, 0.0, 1.0]
],
  "dcmmeta_shape": [96, 96, 48, 618],
  "dcmmeta_slice_dim": 2,
  "dcmmeta_version": 0.6,
  "global": {
    "const": {
      "AccessionNumber": "A001306",
      "AcquisitionMatrix": [96, 0, 0, 96],
      "AngioFlag": "N",
      "BitsAllocated": 16,
      "BitsStored": 12,
      "BodyPartExamined": "BRAIN",
      "Columns": 672,
      "EchoNumbers": 1,
      "EchoTime": 33.0,
      "EchoTrainLength": 96,
      "FlipAngle": 59.0,
      "HighBit": 11,
      "ImageOrientationPatient": [0.99934777645463, 0.03051845257847, -0.0193040344853, -0.032453357159, 0.99345939914964, -0.1094769466617],
      "ImagePositionPatient": [-815.22886265774, -873.10964572627, 36.024504388025],
      "ImageType": [
        "ORIGINAL",
        "PRIMARY",
        "FMRI",
        "NONE",
        "ND",
        "NORM",
        "MOSAIC"
],
      "ImagedNucleus": "1H",
      "ImagingFrequency": 123.252301,
      "InPlanePhaseEncodingDirection": "COL",
      "MRAcquisitionType": "2D",
      "MagneticFieldStrength": 3.0,
      "Manufacturer": "SIEMENS",
      "ManufacturerModelName": "Prisma",
      "Modality": "MR",
      "NumberOfAverages": 1.0,
      "NumberOfPhaseEncodingSteps": 96,
      "PercentPhaseFieldOfView": 100.0,
      "PercentSampling": 100.0,
      "PerformedProcedureStepStartTime": "162113.419000",
      "PhotometricInterpretation": "MONOCHROME2",
      "PixelBandwidth": 2365.0,
      "PixelRepresentation": 0,
      "PixelSpacing": [2.5, 2.5],
      "ProtocolName": "func_run-04_task-movie",
      "RepetitionTime": 1000.0,
      "Rows": 672,
      "SAR": 0.05018403040952,
      "SamplesPerPixel": 1,
      "ScanOptions": "FS",
      "ScanningSequence": "EP",
      "SequenceName": "*epfid2d1_96",
      "SequenceVariant": "SK",
      "SeriesDescription": "func_run-04_task-movie",
      "SeriesNumber": 29,
      "SeriesTime": "170811.970000",
      "SliceLocation": -73.179342738638,
      "SliceThickness": 2.5,
      "SmallestImagePixelValue": 0,
      "SoftwareVersions": "syngo MR E11",
      "SpacingBetweenSlices": 2.4999999467674,
      "SpecificCharacterSet": "ISO_IR 100",
      "StudyID": "1",
      "StudyTime": "162113.339000",
      "TransmitCoilName": "Body",
      "VariableFlipAngleFlag": "N",
      "WindowCenterWidthExplanation": "Algo1",
      "dBdt": 0.0},
    "slices": {}
  },
  "time": {
    "samples": {
      "AcquisitionNumber": [1, 2, 3, 4, 5, 6, 7, 8, 9, 10, 11, 12, 13, 14, 15, 16, 17, 18, 19, 20, 21, 22, 23, 24, 25, 26, 27, 28, 29, 30, 31, 32, 33, 34, 35, 36, 37, 38, 39, 40, 41, 42, 43, 44, 45, 46, 47, 48, 49, 50, 51, 52, 53, 54, 55, 56, 57, 58, 59, 60, 61, 62, 63, 64, 65, 66, 67, 68, 69, 70, 71, 72, 73, 74, 75, 76, 77, 78, 79, 80, 81, 82, 83, 84, 85, 86, 87, 88, 89, 90, 91, 92, 93, 94, 95, 96, 97, 98, 99, 100, 101, 102, 103, 104, 105, 106, 107, 108, 109, 110, 111, 112, 113, 114, 115, 116, 117, 118, 119, 120, 121, 122, 123, 124, 125, 126, 127, 128, 129, 130, 131, 132, 133, 134, 135, 136, 137, 138, 139, 140, 141, 142, 143, 144, 145, 146, 147, 148, 149, 150, 151, 152, 153, 154, 155, 156, 157, 158, 159, 160, 161, 162, 163, 164, 165, 166, 167, 168, 169, 170, 171, 172, 173, 174, 175, 176, 177, 178, 179, 180, 181, 182, 183, 184, 185, 186, 187, 188, 189, 190, 191, 192, 193, 194, 195, 196, 197, 198, 199, 200, 201, 202, 203, 204, 205, 206, 207, 208, 209, 210, 211, 212, 213, 214, 215, 216, 217, 218, 219, 220, 221, 222, 223, 224, 225, 226, 227, 228, 229, 230, 231, 232, 233, 234, 235, 236, 237, 238, 239, 240, 241, 242, 243, 244, 245, 246, 247, 248, 249, 250, 251, 252, 253, 254, 255, 256, 257, 258, 259, 260, 261, 262, 263, 264, 265, 266, 267, 268, 269, 270, 271, 272, 273, 274, 275, 276, 277, 278, 279, 280, 281, 282, 283, 284, 285, 286, 287, 288, 289, 290, 291, 292, 293, 294, 295, 296, 297, 298, 299, 300, 301, 302, 303, 304, 305, 306, 307, 308, 309, 310, 311, 312, 313, 314, 315, 316, 317, 318, 319, 320, 321, 322, 323, 324, 325, 326, 327, 328, 329, 330, 331, 332, 333, 334, 335, 336, 337, 338, 339, 340, 341, 342, 343, 344, 345, 346, 347, 348, 349, 350, 351, 352, 353, 354, 355, 356, 357, 358, 359, 360, 361, 362, 363, 364, 365, 366, 367, 368, 369, 370, 371, 372, 373, 374, 375, 376, 377, 378, 379, 380, 381, 382, 383, 384, 385, 386, 387, 388, 389, 390, 391, 392, 393, 394, 395, 396, 397, 398, 399, 400, 401, 402, 403, 404, 405, 406, 407, 408, 409, 410, 411, 412, 413, 414, 415, 416, 417, 418, 419, 420, 421, 422, 423, 424, 425, 426, 427, 428, 429, 430, 431, 432, 433, 434, 435, 436, 437, 438, 439, 440, 441, 442, 443, 444, 445, 446, 447, 448, 449, 450, 451, 452, 453, 454, 455, 456, 457, 458, 459, 460, 461, 462, 463, 464, 465, 466, 467, 468, 469, 470, 471, 472, 473, 474, 475, 476, 477, 478, 479, 480, 481, 482, 483, 484, 485, 486, 487, 488, 489, 490, 491, 492, 493, 494, 495, 496, 497, 498, 499, 500, 501, 502, 503, 504, 505, 506, 507, 508, 509, 510, 511, 512, 513, 514, 515, 516, 517, 518, 519, 520, 521, 522, 523, 524, 525, 526, 527, 528, 529, 530, 531, 532, 533, 534, 535, 536, 537, 538, 539, 540, 541, 542, 543, 544, 545, 546, 547, 548, 549, 550, 551, 552, 553, 554, 555, 556, 557, 558, 559, 560, 561, 562, 563, 564, 565, 566, 567, 568, 569, 570, 571, 572, 573, 574, 575, 576, 577, 578, 579, 580, 581, 582, 583, 584, 585, 586, 587, 588, 589, 590, 591, 592, 593, 594, 595, 596, 597, 598, 599, 600, 601, 602, 603, 604, 605, 606, 607, 608, 609, 610, 611, 612, 613, 614, 615, 616, 617, 618],
      "AcquisitionTime": ["170810.310000", "170811.310000", "170812.310000", "170813.310000", "170814.310000", "170815.310000", "170816.310000", "170817.310000", "170818.310000", "170819.310000", "170820.310000", "170821.310000", "170822.310000", "170823.310000", "170824.310000", "170825.310000", "170826.310000", "170827.310000", "170828.310000", "170829.310000", "170830.310000", "170831.310000", "170832.310000", "170833.310000", "170834.310000", "170835.310000", "170836.310000", "170837.310000", "170838.310000", "170839.310000", "170840.310000", "170841.310000", "170842.310000", "170843.310000", "170844.310000", "170845.310000", "170846.310000", "170847.310000", "170848.310000", "170849.310000", "170850.310000", "170851.310000", "170852.310000", "170853.310000", "170854.310000", "170855.310000", "170856.310000", "170857.310000", "170858.310000", "170859.310000", "170900.310000", "170901.310000", "170902.310000", "170903.310000", "170904.310000", "170905.310000", "170906.310000", "170907.310000", "170908.310000", "170909.310000", "170910.310000", "170911.310000", "170912.310000", "170913.310000", "170914.310000", "170915.310000", "170916.310000", "170917.310000", "170918.310000", "170919.310000", "170920.310000", "170921.310000", "170922.310000", "170923.310000", "170924.310000", "170925.310000", "170926.310000", "170927.310000", "170928.310000", "170929.310000", "170930.310000", "170931.310000", "170932.310000", "170933.310000", "170934.310000", "170935.310000", "170936.310000", "170937.310000", "170938.310000", "170939.310000", "170940.310000", "170941.310000", "170942.310000", "170943.310000", "170944.310000", "170945.310000", "170946.310000", "170947.310000", "170948.310000", "170949.310000", "170950.310000", "170951.310000", "170952.310000", "170953.310000", "170954.310000", "170955.310000", "170956.310000", "170957.310000", "170958.310000", "170959.310000", "171000.310000", "171001.310000", "171002.310000", "171003.310000", "171004.310000", "171005.310000", "171006.310000", "171007.310000", "171008.310000", "171009.310000", "171010.310000", "171011.310000", "171012.310000", "171013.310000", "171014.310000", "171015.310000", "171016.310000", "171017.310000", "171018.310000", "171019.310000", "171020.310000", "171021.310000", "171022.310000", "171023.310000", "171024.310000", "171025.310000", "171026.310000", "171027.310000", "171028.310000", "171029.310000", "171030.310000", "171031.310000", "171032.310000", "171033.310000", "171034.310000", "171035.310000", "171036.310000", "171037.310000", "171038.310000", "171039.310000", "171040.310000", "171041.310000", "171042.310000", "171043.310000", "171044.310000", "171045.310000", "171046.310000", "171047.310000", "171048.310000", "171049.310000", "171050.310000", "171051.310000", "171052.310000", "171053.310000", "171054.310000", "171055.310000", "171056.310000", "171057.310000", "171058.310000", "171059.310000", "171100.310000", "171101.310000", "171102.310000", "171103.310000", "171104.310000", "171105.310000", "171106.310000", "171107.310000", "171108.310000", "171109.310000", "171110.310000", "171111.310000", "171112.310000", "171113.310000", "171114.310000", "171115.310000", "171116.310000", "171117.310000", "171118.310000", "171119.310000", "171120.310000", "171121.310000", "171122.310000", "171123.310000", "171124.310000", "171125.310000", "171126.310000", "171127.310000", "171128.310000", "171129.310000", "171130.310000", "171131.310000", "171132.310000", "171133.310000", "171134.310000", "171135.310000", "171136.310000", "171137.310000", "171138.310000", "171139.310000", "171140.310000", "171141.310000", "171142.310000", "171143.310000", "171144.310000", "171145.310000", "171146.310000", "171147.310000", "171148.310000", "171149.310000", "171150.310000", "171151.310000", "171152.310000", "171153.310000", "171154.310000", "171155.310000", "171156.310000", "171157.310000", "171158.310000", "171159.310000", "171200.310000", "171201.310000", "171202.310000", "171203.310000", "171204.310000", "171205.310000", "171206.310000", "171207.310000", "171208.310000", "171209.310000", "171210.310000", "171211.310000", "171212.310000", "171213.310000", "171214.310000", "171215.310000", "171216.310000", "171217.310000", "171218.310000", "171219.310000", "171220.310000", "171221.310000", "171222.310000", "171223.310000", "171224.310000", "171225.310000", "171226.310000", "171227.310000", "171228.310000", "171229.310000", "171230.310000", "171231.310000", "171232.310000", "171233.310000", "171234.310000", "171235.310000", "171236.310000", "171237.310000", "171238.310000", "171239.310000", "171240.310000", "171241.310000", "171242.310000", "171243.310000", "171244.310000", "171245.310000", "171246.310000", "171247.310000", "171248.310000", "171249.310000", "171250.310000", "171251.310000", "171252.310000", "171253.310000", "171254.310000", "171255.310000", "171256.310000", "171257.310000", "171258.310000", "171259.310000", "171300.310000", "171301.310000", "171302.310000", "171303.310000", "171304.310000", "171305.310000", "171306.310000", "171307.310000", "171308.310000", "171309.310000", "171310.310000", "171311.310000", "171312.310000", "171313.310000", "171314.310000", "171315.310000", "171316.310000", "171317.310000", "171318.310000", "171319.310000", "171320.310000", "171321.310000", "171322.310000", "171323.310000", "171324.310000", "171325.310000", "171326.310000", "171327.310000", "171328.310000", "171329.310000", "171330.310000", "171331.310000", "171332.310000", "171333.310000", "171334.310000", "171335.310000", "171336.310000", "171337.310000", "171338.310000", "171339.310000", "171340.310000", "171341.310000", "171342.310000", "171343.310000", "171344.310000", "171345.310000", "171346.310000", "171347.310000", "171348.310000", "171349.310000", "171350.310000", "171351.310000", "171352.310000", "171353.310000", "171354.310000", "171355.310000", "171356.310000", "171357.310000", "171358.310000", "171359.310000", "171400.310000", "171401.310000", "171402.310000", "171403.310000", "171404.310000", "171405.310000", "171406.310000", "171407.310000", "171408.310000", "171409.310000", "171410.310000", "171411.310000", "171412.310000", "171413.310000", "171414.310000", "171415.310000", "171416.310000", "171417.310000", "171418.310000", "171419.310000", "171420.310000", "171421.310000", "171422.310000", "171423.310000", "171424.310000", "171425.310000", "171426.310000", "171427.310000", "171428.310000", "171429.310000", "171430.310000", "171431.310000", "171432.310000", "171433.310000", "171434.310000", "171435.310000", "171436.310000", "171437.310000", "171438.310000", "171439.310000", "171440.310000", "171441.310000", "171442.310000", "171443.310000", "171444.310000", "171445.310000", "171446.310000", "171447.310000", "171448.310000", "171449.310000", "171450.310000", "171451.310000", "171452.310000", "171453.310000", "171454.310000", "171455.310000", "171456.310000", "171457.310000", "171458.310000", "171459.310000", "171500.310000", "171501.310000", "171502.310000", "171503.310000", "171504.310000", "171505.310000", "171506.310000", "171507.310000", "171508.310000", "171509.310000", "171510.310000", "171511.310000", "171512.310000", "171513.310000", "171514.310000", "171515.310000", "171516.310000", "171517.310000", "171518.310000", "171519.310000", "171520.310000", "171521.310000", "171522.310000", "171523.310000", "171524.310000", "171525.310000", "171526.310000", "171527.310000", "171528.310000", "171529.310000", "171530.310000", "171531.310000", "171532.310000", "171533.310000", "171534.310000", "171535.310000", "171536.310000", "171537.310000", "171538.310000", "171539.310000", "171540.310000", "171541.310000", "171542.310000", "171543.310000", "171544.310000", "171545.310000", "171546.310000", "171547.310000", "171548.310000", "171549.310000", "171550.310000", "171551.310000", "171552.310000", "171553.310000", "171554.310000", "171555.310000", "171556.310000", "171557.310000", "171558.310000", "171559.310000", "171600.310000", "171601.310000", "171602.310000", "171603.310000", "171604.310000", "171605.310000", "171606.310000", "171607.310000", "171608.310000", "171609.310000", "171610.310000", "171611.310000", "171612.310000", "171613.310000", "171614.310000", "171615.310000", "171616.310000", "171617.310000", "171618.310000", "171619.310000", "171620.310000", "171621.310000", "171622.310000", "171623.310000", "171624.310000", "171625.310000", "171626.310000", "171627.310000", "171628.310000", "171629.310000", "171630.310000", "171631.310000", "171632.310000", "171633.310000", "171634.310000", "171635.310000", "171636.310000", "171637.310000", "171638.310000", "171639.310000", "171640.310000", "171641.310000", "171642.310000", "171643.310000", "171644.310000", "171645.310000", "171646.310000", "171647.310000", "171648.310000", "171649.310000", "171650.310000", "171651.310000", "171652.310000", "171653.310000", "171654.310000", "171655.310000", "171656.310000", "171657.310000", "171658.310000", "171659.310000", "171700.310000", "171701.310000", "171702.310000", "171703.310000", "171704.310000", "171705.310000", "171706.310000", "171707.310000", "171708.310000", "171709.310000", "171710.310000", "171711.310000", "171712.310000", "171713.310000", "171714.310000", "171715.310000", "171716.310000", "171717.310000", "171718.310000", "171719.310000", "171720.310000", "171721.310000", "171722.310000", "171723.310000", "171724.310000", "171725.310000", "171726.310000", "171727.310000", "171728.310000", "171729.310000", "171730.310000", "171731.310000", "171732.310000", "171733.310000", "171734.310000", "171735.310000", "171736.310000", "171737.310000", "171738.310000", "171739.310000", "171740.310000", "171741.310000", "171742.310000", "171743.310000", "171744.310000", "171745.310000", "171746.310000", "171747.310000", "171748.310000", "171749.310000", "171750.310000", "171751.310000", "171752.310000", "171753.310000", "171754.310000", "171755.310000", "171756.310000", "171757.310000", "171758.310000", "171759.310000", "171800.310000", "171801.310000", "171802.310000", "171803.310000", "171804.310000", "171805.310000", "171806.310000", "171807.310000", "171808.310000", "171809.310000", "171810.310000", "171811.310000", "171812.310000", "171813.310000", "171814.310000", "171815.310000", "171816.310000", "171817.310000", "171818.310000", "171819.310000", "171820.310000", "171821.310000", "171822.310000", "171823.310000", "171824.310000", "171825.310000", "171826.310000", "171827.310000"],
      "ContentTime": ["170811.974000", "170812.714000", "170813.770000", "170814.695000", "170815.775000", "170816.710000", "170817.741000", "170818.719000", "170819.718000", "170820.722000", "170821.719000", "170822.741000", "170823.705000", "170824.723000", "170825.706000", "170826.737000", "170827.722000", "170828.787000", "170829.719000", "170830.740000", "170831.734000", "170832.774000", "170833.715000", "170834.707000", "170835.703000", "170836.729000", "170837.768000", "170838.730000", "170839.764000", "170840.718000", "170841.716000", "170842.721000", "170843.723000", "170844.735000", "170845.718000", "170846.721000", "170847.721000", "170848.721000", "170849.705000", "170850.724000", "170851.735000", "170852.796000", "170853.731000", "170854.821000", "170855.759000", "170856.705000", "170857.736000", "170858.742000", "170859.732000", "170900.703000", "170901.816000", "170902.735000", "170903.713000", "170904.746000", "170905.712000", "170906.719000", "170907.751000", "170908.763000", "170909.706000", "170910.717000", "170911.731000", "170912.720000", "170913.712000", "170914.702000", "170915.750000", "170916.709000", "170917.776000", "170918.705000", "170919.703000", "170920.723000", "170921.727000", "170922.732000", "170923.731000", "170924.728000", "170925.723000", "170926.704000", "170927.704000", "170928.722000", "170929.705000", "170930.709000", "170931.718000", "170932.721000", "170933.735000", "170934.705000", "170935.721000", "170936.719000", "170937.733000", "170938.701000", "170939.726000", "170940.710000", "170941.749000", "170942.709000", "170943.735000", "170944.721000", "170945.714000", "170946.721000", "170947.724000", "170948.743000", "170949.783000", "170950.720000", "170951.714000", "170952.730000", "170953.729000", "170954.722000", "170955.753000", "170956.709000", "170957.765000", "170958.722000", "170959.721000", "171000.752000", "171001.763000", "171002.700000", "171003.718000", "171004.714000", "171005.718000", "171006.767000", "171007.724000", "171008.712000", "171009.759000", "171010.727000", "171011.726000", "171012.741000", "171013.724000", "171014.720000", "171015.751000", "171016.711000", "171017.730000", "171018.723000", "171019.723000", "171020.727000", "171021.733000", "171022.737000", "171023.719000", "171024.722000", "171025.812000", "171026.736000", "171027.710000", "171028.703000", "171029.731000", "171030.720000", "171031.728000", "171032.723000", "171033.744000", "171034.733000", "171035.730000", "171036.718000", "171037.726000", "171038.729000", "171039.726000", "171040.744000", "171041.730000", "171042.763000", "171043.762000", "171044.727000", "171045.707000", "171046.739000", "171047.715000", "171048.717000", "171049.724000", "171050.711000", "171051.736000", "171052.716000", "171053.747000", "171054.722000", "171055.716000", "171056.718000", "171057.742000", "171058.725000", "171059.736000", "171100.724000", "171101.718000", "171102.724000", "171103.735000", "171104.728000", "171105.718000", "171106.711000", "171107.714000", "171108.720000", "171109.746000", "171110.709000", "171111.694000", "171112.753000", "171113.736000", "171114.703000", "171115.711000", "171116.718000", "171117.728000", "171118.712000", "171119.725000", "171120.713000", "171121.709000", "171122.711000", "171123.702000", "171124.727000", "171125.742000", "171126.728000", "171127.705000", "171128.786000", "171129.717000", "171130.726000", "171131.717000", "171132.772000", "171133.771000", "171134.718000", "171135.756000", "171136.727000", "171137.721000", "171138.710000", "171139.740000", "171140.759000", "171141.714000", "171142.692000", "171143.711000", "171144.755000", "171145.739000", "171146.721000", "171147.716000", "171148.708000", "171149.718000", "171150.715000", "171151.711000", "171152.770000", "171153.740000", "171154.707000", "171155.719000", "171156.720000", "171157.697000", "171158.726000", "171159.712000", "171200.725000", "171201.795000", "171202.739000", "171203.728000", "171204.723000", "171205.710000", "171206.720000", "171207.733000", "171208.710000", "171209.751000", "171210.742000", "171211.733000", "171212.717000", "171213.771000", "171214.733000", "171215.706000", "171216.744000", "171217.725000", "171218.739000", "171219.727000", "171220.718000", "171221.720000", "171222.737000", "171223.736000", "171224.747000", "171225.735000", "171226.688000", "171227.729000", "171228.738000", "171229.695000", "171230.708000", "171231.783000", "171232.748000", "171233.725000", "171234.695000", "171235.740000", "171236.729000", "171237.730000", "171238.710000", "171239.775000", "171240.722000", "171241.751000", "171242.707000", "171243.710000", "171244.707000", "171245.720000", "171246.719000", "171247.724000", "171248.725000", "171249.745000", "171250.741000", "171251.777000", "171252.749000", "171253.743000", "171254.722000", "171255.715000", "171256.753000", "171257.759000", "171258.743000", "171259.718000", "171300.739000", "171301.733000", "171302.704000", "171303.723000", "171304.722000", "171305.734000", "171306.697000", "171307.723000", "171308.724000", "171309.733000", "171310.715000", "171311.725000", "171312.735000", "171313.737000", "171314.702000", "171315.707000", "171316.697000", "171317.732000", "171318.707000", "171319.711000", "171320.709000", "171321.745000", "171322.699000", "171323.719000", "171324.723000", "171325.720000", "171326.722000", "171327.692000", "171328.740000", "171329.711000", "171330.734000", "171331.726000", "171332.719000", "171333.727000", "171334.705000", "171335.736000", "171336.699000", "171337.735000", "171338.709000", "171339.707000", "171340.703000", "171341.772000", "171342.716000", "171343.731000", "171344.700000", "171345.735000", "171346.701000", "171347.747000", "171348.731000", "171349.707000", "171350.733000", "171351.741000", "171352.723000", "171353.711000", "171354.725000", "171355.766000", "171356.749000", "171357.709000", "171358.753000", "171359.715000", "171400.739000", "171401.701000", "171402.694000", "171403.717000", "171404.711000", "171405.758000", "171406.733000", "171407.709000", "171408.713000", "171409.722000", "171410.738000", "171411.707000", "171412.731000", "171413.737000", "171414.733000", "171415.728000", "171416.704000", "171417.697000", "171418.747000", "171419.714000", "171420.794000", "171421.730000", "171422.732000", "171423.724000", "171424.724000", "171425.730000", "171426.756000", "171427.717000", "171428.745000", "171429.773000", "171430.722000", "171431.715000", "171432.717000", "171433.711000", "171434.727000", "171435.731000", "171436.724000", "171437.745000", "171438.737000", "171439.721000", "171440.714000", "171441.729000", "171442.742000", "171443.730000", "171444.729000", "171445.711000", "171446.747000", "171447.713000", "171448.717000", "171449.720000", "171450.744000", "171451.702000", "171452.715000", "171453.727000", "171454.709000", "171455.734000", "171456.716000", "171457.726000", "171458.721000", "171459.728000", "171500.717000", "171501.716000", "171502.728000", "171503.730000", "171504.702000", "171505.744000", "171506.692000", "171507.697000", "171508.762000", "171509.701000", "171510.698000", "171511.768000", "171512.701000", "171513.711000", "171514.717000", "171515.744000", "171516.722000", "171517.725000", "171518.759000", "171519.755000", "171520.725000", "171521.725000", "171522.706000", "171523.708000", "171524.720000", "171525.722000", "171526.713000", "171527.719000", "171528.722000", "171529.724000", "171530.716000", "171531.729000", "171532.722000", "171533.702000", "171534.709000", "171535.732000", "171536.720000", "171537.705000", "171538.725000", "171539.713000", "171540.715000", "171541.709000", "171542.722000", "171543.711000", "171544.734000", "171545.721000", "171546.753000", "171547.719000", "171548.712000", "171549.706000", "171550.732000", "171551.873000", "171552.726000", "171553.743000", "171554.714000", "171555.747000", "171556.701000", "171557.737000", "171558.721000", "171559.740000", "171600.708000", "171601.720000", "171602.754000", "171603.761000", "171604.739000", "171605.716000", "171606.715000", "171607.724000", "171608.721000", "171609.720000", "171610.730000", "171611.731000", "171612.712000", "171613.741000", "171614.741000", "171615.743000", "171616.729000", "171617.723000", "171618.729000", "171619.733000", "171620.728000", "171621.723000", "171622.721000", "171623.723000", "171624.775000", "171625.775000", "171626.719000", "171627.733000", "171628.709000", "171629.726000", "171630.717000", "171631.725000", "171632.750000", "171633.729000", "171634.776000", "171635.776000", "171636.704000", "171637.721000", "171638.698000", "171639.680000", "171640.709000", "171641.733000", "171642.685000", "171643.742000", "171644.717000", "171645.709000", "171646.706000", "171647.713000", "171648.702000", "171649.719000", "171650.732000", "171651.718000", "171652.738000", "171653.745000", "171654.775000", "171655.712000", "171656.708000", "171657.716000", "171658.723000", "171659.782000", "171700.724000", "171701.744000", "171702.742000", "171703.711000", "171704.702000", "171705.723000", "171706.721000", "171707.783000", "171708.728000", "171709.720000", "171710.728000", "171711.711000", "171712.708000", "171713.688000", "171714.716000", "171715.735000", "171716.711000", "171717.700000", "171718.710000", "171719.723000", "171720.730000", "171721.708000", "171722.707000", "171723.711000", "171724.704000", "171725.713000", "171726.696000", "171727.698000", "171728.743000", "171729.706000", "171730.697000", "171731.706000", "171732.718000", "171733.697000", "171734.737000", "171735.701000", "171736.727000", "171737.715000", "171738.678000", "171739.713000", "171740.767000", "171741.734000", "171742.688000", "171743.716000", "171744.701000", "171745.709000", "171746.703000", "171747.723000", "171748.719000", "171749.722000", "171750.711000", "171751.700000", "171752.715000", "171753.709000", "171754.724000", "171755.721000", "171756.710000", "171757.749000", "171758.699000", "171759.708000", "171800.709000", "171801.747000", "171802.748000", "171803.715000", "171804.736000", "171805.696000", "171806.684000", "171807.714000", "171808.719000", "171809.767000", "171810.708000", "171811.718000", "171812.719000", "171813.725000", "171814.740000", "171815.740000", "171816.710000", "171817.738000", "171818.712000", "171819.738000", "171820.700000", "171821.713000", "171822.728000", "171823.705000", "171824.715000", "171825.733000", "171826.715000", "171827.720000", "171828.772000"],
