{
  "AcquisitionMatrixPE": 96,
  "AcquisitionNumber": 1,
  "AcquisitionTime": "16:38:41.225000",
  "BandwidthPerPixelPhaseEncode": 18.939,
  "BaseResolution": 96,
  "BodyPartExamined": "BRAIN",
  "ConsistencyInfo": "N4_VE11C_LATEST_20160120",
  "ConversionSoftware": "dcm2niix",
  "ConversionSoftwareVersion": "v1.0.20190902",
  "DerivedVendorReportedEchoSpacing": 0.000550011,
  "DeviceSerialNumber": "66112",
  "DwellTime": 2.2e-06,
  "EchoTime": 0.033,
  "EchoTrainLength": 96,
  "EffectiveEchoSpacing": 0.000550011,
  "FlipAngle": 59,
  "ImageOrientationPatientDICOM": [0.999348, 0.0305185, -0.019304, -0.0324534, 0.993459, -0.109477],
  "ImageType": [
    "ORIGINAL",
    "PRIMARY",
    "FMRI",
    "NONE",
    "ND",
    "NORM",
    "MOSAIC"
],
  "ImagingFrequency": 123.252,
  "InPlanePhaseEncodingDirectionDICOM": "COL",
  "InstitutionAddress": "Maynard_3_Hanover_NH_US_03755",
  "InstitutionName": "Dartmouth_College_-_PBS",
  "InstitutionalDepartmentName": "Department",
  "MRAcquisitionType": "2D",
  "MagneticFieldStrength": 3,
  "Manufacturer": "Siemens",
  "ManufacturersModelName": "Prisma",
  "Modality": "MR",
  "MultibandAccelerationFactor": 4,
  "PartialFourier": 1,
  "PatientPosition": "HFS",
  "PercentPhaseFOV": 100,
  "PhaseEncodingDirection": "j-",
  "PhaseEncodingSteps": 96,
  "PhaseResolution": 1,
  "PixelBandwidth": 2365,
  "ProcedureStepDescription": "Gobbini_Matteo_1037_budapest",
  "ProtocolName": "func_run-01_task-movie",
  "PulseSequenceDetails": "%SiemensSeq%_ep2d_bold",
  "ReceiveCoilActiveElements": "HEA;HEP",
  "ReceiveCoilName": "Head_32",
  "ReconMatrixPE": 96,
  "RefLinesPE": 12,
  "RepetitionTime": 1,
  "SAR": 0.0501752,
  "ScanOptions": "FS",
  "ScanningSequence": "EP",
  "SequenceName": "_epfid2d1_96",
  "SequenceVariant": "SK",
  "SeriesDescription": "func_run-01_task-movie",
  "SeriesNumber": 8,
  "ShimSetting": [4142, -7688, -7297, 536, -41, 56, 72, 116],
  "SliceThickness": 2.5,
  "SliceTiming": [0.735, 0, 0.49, 0.0825, 0.5725, 0.1625, 0.6525, 0.3275, 0.8175, 0.4075, 0.8975, 0.245, 0.735, 0, 0.49, 0.0825, 0.5725, 0.1625, 0.6525, 0.3275, 0.8175, 0.4075, 0.8975, 0.245, 0.735, 0, 0.49, 0.0825, 0.5725, 0.1625, 0.6525, 0.3275, 0.8175, 0.4075, 0.8975, 0.245, 0.735, 0, 0.49, 0.0825, 0.5725, 0.1625, 0.6525, 0.3275, 0.8175, 0.4075, 0.8975, 0.245],
  "SoftwareVersions": "syngo_MR_E11",
  "SpacingBetweenSlices": 2.5,
  "StationName": "AWP66112",
  "TaskName": "movie",
  "TotalReadoutTime": 0.0522511,
  "TxRefAmp": 243.32,
  "dcmmeta_affine": [
    [-2.4983694553375244, -0.0811333954334259, -0.03959176689386368, 126.77255249023438],
    [-0.0762961283326149, 2.4836485385894775, -0.2750800549983978, -100.10101318359375],
    [-0.04826008528470993, 0.27369236946105957, 2.4845046997070312, -82.69857788085938],
    [0.0, 0.0, 0.0, 1.0]
],
  "dcmmeta_reorient_transform": [
    [0.0, -1.0, 0.0, 95.0],
    [1.0, 0.0, 0.0, 0.0],
    [0.0, 0.0, 1.0, 0.0],
    [0.0, 0.0, 0.0, 1.0]
],
  "dcmmeta_shape": [96, 96, 48, 598],
  "dcmmeta_slice_dim": 2,
  "dcmmeta_version": 0.6,
  "global": {
    "const": {
      "AccessionNumber": "A001306",
      "AcquisitionMatrix": [96, 0, 0, 96],
      "AngioFlag": "N",
      "BitsAllocated": 16,
      "BitsStored": 12,
      "BodyPartExamined": "BRAIN",
      "Columns": 672,
      "EchoNumbers": 1,
      "EchoTime": 33.0,
      "EchoTrainLength": 96,
      "FlipAngle": 59.0,
      "HighBit": 11,
      "ImageOrientationPatient": [0.99934777645463, 0.03051845257847, -0.0193040344853, -0.032453357159, 0.99345939914964, -0.1094769466617],
      "ImagePositionPatient": [-815.22886265774, -873.10964572627, 36.024504388025],
      "ImageType": [
        "ORIGINAL",
        "PRIMARY",
        "FMRI",
        "NONE",
        "ND",
        "NORM",
        "MOSAIC"
],
      "ImagedNucleus": "1H",
      "ImagingFrequency": 123.252283,
      "InPlanePhaseEncodingDirection": "COL",
      "MRAcquisitionType": "2D",
      "MagneticFieldStrength": 3.0,
      "Manufacturer": "SIEMENS",
      "ManufacturerModelName": "Prisma",
      "Modality": "MR",
      "NumberOfAverages": 1.0,
      "NumberOfPhaseEncodingSteps": 96,
      "PercentPhaseFieldOfView": 100.0,
      "PercentSampling": 100.0,
      "PerformedProcedureStepStartTime": "162113.419000",
      "PhotometricInterpretation": "MONOCHROME2",
      "PixelBandwidth": 2365.0,
      "PixelRepresentation": 0,
      "PixelSpacing": [2.5, 2.5],
      "ProtocolName": "func_run-01_task-movie",
      "RepetitionTime": 1000.0,
      "Rows": 672,
      "SAR": 0.05017524888721,
      "SamplesPerPixel": 1,
      "ScanOptions": "FS",
      "ScanningSequence": "EP",
      "SequenceName": "*epfid2d1_96",
      "SequenceVariant": "SK",
      "SeriesDescription": "func_run-01_task-movie",
      "SeriesNumber": 8,
      "SeriesTime": "163842.707000",
      "SliceLocation": -73.179342738638,
      "SliceThickness": 2.5,
      "SmallestImagePixelValue": 0,
      "SoftwareVersions": "syngo MR E11",
      "SpacingBetweenSlices": 2.4999999467674,
      "SpecificCharacterSet": "ISO_IR 100",
      "StudyID": "1",
      "StudyTime": "162113.339000",
      "TransmitCoilName": "Body",
      "VariableFlipAngleFlag": "N",
      "WindowCenterWidthExplanation": "Algo1",
      "dBdt": 0.0},
    "slices": {}
  },
  "time": {
    "samples": {
      "AcquisitionNumber": [1, 2, 3, 4, 5, 6, 7, 8, 9, 10, 11, 12, 13, 14, 15, 16, 17, 18, 19, 20, 21, 22, 23, 24, 25, 26, 27, 28, 29, 30, 31, 32, 33, 34, 35, 36, 37, 38, 39, 40, 41, 42, 43, 44, 45, 46, 47, 48, 49, 50, 51, 52, 53, 54, 55, 56, 57, 58, 59, 60, 61, 62, 63, 64, 65, 66, 67, 68, 69, 70, 71, 72, 73, 74, 75, 76, 77, 78, 79, 80, 81, 82, 83, 84, 85, 86, 87, 88, 89, 90, 91, 92, 93, 94, 95, 96, 97, 98, 99, 100, 101, 102, 103, 104, 105, 106, 107, 108, 109, 110, 111, 112, 113, 114, 115, 116, 117, 118, 119, 120, 121, 122, 123, 124, 125, 126, 127, 128, 129, 130, 131, 132, 133, 134, 135, 136, 137, 138, 139, 140, 141, 142, 143, 144, 145, 146, 147, 148, 149, 150, 151, 152, 153, 154, 155, 156, 157, 158, 159, 160, 161, 162, 163, 164, 165, 166, 167, 168, 169, 170, 171, 172, 173, 174, 175, 176, 177, 178, 179, 180, 181, 182, 183, 184, 185, 186, 187, 188, 189, 190, 191, 192, 193, 194, 195, 196, 197, 198, 199, 200, 201, 202, 203, 204, 205, 206, 207, 208, 209, 210, 211, 212, 213, 214, 215, 216, 217, 218, 219, 220, 221, 222, 223, 224, 225, 226, 227, 228, 229, 230, 231, 232, 233, 234, 235, 236, 237, 238, 239, 240, 241, 242, 243, 244, 245, 246, 247, 248, 249, 250, 251, 252, 253, 254, 255, 256, 257, 258, 259, 260, 261, 262, 263, 264, 265, 266, 267, 268, 269, 270, 271, 272, 273, 274, 275, 276, 277, 278, 279, 280, 281, 282, 283, 284, 285, 286, 287, 288, 289, 290, 291, 292, 293, 294, 295, 296, 297, 298, 299, 300, 301, 302, 303, 304, 305, 306, 307, 308, 309, 310, 311, 312, 313, 314, 315, 316, 317, 318, 319, 320, 321, 322, 323, 324, 325, 326, 327, 328, 329, 330, 331, 332, 333, 334, 335, 336, 337, 338, 339, 340, 341, 342, 343, 344, 345, 346, 347, 348, 349, 350, 351, 352, 353, 354, 355, 356, 357, 358, 359, 360, 361, 362, 363, 364, 365, 366, 367, 368, 369, 370, 371, 372, 373, 374, 375, 376, 377, 378, 379, 380, 381, 382, 383, 384, 385, 386, 387, 388, 389, 390, 391, 392, 393, 394, 395, 396, 397, 398, 399, 400, 401, 402, 403, 404, 405, 406, 407, 408, 409, 410, 411, 412, 413, 414, 415, 416, 417, 418, 419, 420, 421, 422, 423, 424, 425, 426, 427, 428, 429, 430, 431, 432, 433, 434, 435, 436, 437, 438, 439, 440, 441, 442, 443, 444, 445, 446, 447, 448, 449, 450, 451, 452, 453, 454, 455, 456, 457, 458, 459, 460, 461, 462, 463, 464, 465, 466, 467, 468, 469, 470, 471, 472, 473, 474, 475, 476, 477, 478, 479, 480, 481, 482, 483, 484, 485, 486, 487, 488, 489, 490, 491, 492, 493, 494, 495, 496, 497, 498, 499, 500, 501, 502, 503, 504, 505, 506, 507, 508, 509, 510, 511, 512, 513, 514, 515, 516, 517, 518, 519, 520, 521, 522, 523, 524, 525, 526, 527, 528, 529, 530, 531, 532, 533, 534, 535, 536, 537, 538, 539, 540, 541, 542, 543, 544, 545, 546, 547, 548, 549, 550, 551, 552, 553, 554, 555, 556, 557, 558, 559, 560, 561, 562, 563, 564, 565, 566, 567, 568, 569, 570, 571, 572, 573, 574, 575, 576, 577, 578, 579, 580, 581, 582, 583, 584, 585, 586, 587, 588, 589, 590, 591, 592, 593, 594, 595, 596, 597, 598],
      "AcquisitionTime": ["163841.225000", "163842.225000", "163843.225000", "163844.225000", "163845.225000", "163846.225000", "163847.225000", "163848.225000", "163849.225000", "163850.225000", "163851.225000", "163852.225000", "163853.225000", "163854.225000", "163855.225000", "163856.225000", "163857.225000", "163858.225000", "163859.225000", "163900.225000", "163901.225000", "163902.225000", "163903.225000", "163904.225000", "163905.225000", "163906.225000", "163907.225000", "163908.225000", "163909.225000", "163910.225000", "163911.225000", "163912.225000", "163913.225000", "163914.225000", "163915.225000", "163916.225000", "163917.225000", "163918.225000", "163919.225000", "163920.225000", "163921.225000", "163922.225000", "163923.225000", "163924.225000", "163925.225000", "163926.225000", "163927.225000", "163928.225000", "163929.225000", "163930.225000", "163931.225000", "163932.225000", "163933.225000", "163934.225000", "163935.225000", "163936.225000", "163937.225000", "163938.225000", "163939.225000", "163940.225000", "163941.225000", "163942.225000", "163943.225000", "163944.225000", "163945.225000", "163946.225000", "163947.225000", "163948.225000", "163949.225000", "163950.225000", "163951.225000", "163952.225000", "163953.225000", "163954.225000", "163955.225000", "163956.225000", "163957.225000", "163958.225000", "163959.225000", "164000.225000", "164001.225000", "164002.225000", "164003.225000", "164004.225000", "164005.225000", "164006.225000", "164007.225000", "164008.225000", "164009.225000", "164010.225000", "164011.225000", "164012.225000", "164013.225000", "164014.225000", "164015.225000", "164016.225000", "164017.225000", "164018.225000", "164019.225000", "164020.225000", "164021.225000", "164022.225000", "164023.225000", "164024.225000", "164025.225000", "164026.225000", "164027.225000", "164028.225000", "164029.225000", "164030.225000", "164031.225000", "164032.225000", "164033.225000", "164034.225000", "164035.225000", "164036.225000", "164037.225000", "164038.225000", "164039.225000", "164040.225000", "164041.225000", "164042.225000", "164043.225000", "164044.225000", "164045.225000", "164046.225000", "164047.225000", "164048.225000", "164049.225000", "164050.225000", "164051.225000", "164052.225000", "164053.225000", "164054.225000", "164055.225000", "164056.225000", "164057.225000", "164058.225000", "164059.225000", "164100.225000", "164101.225000", "164102.225000", "164103.225000", "164104.225000", "164105.225000", "164106.225000", "164107.225000", "164108.225000", "164109.225000", "164110.225000", "164111.225000", "164112.225000", "164113.225000", "164114.225000", "164115.225000", "164116.225000", "164117.225000", "164118.225000", "164119.225000", "164120.225000", "164121.225000", "164122.225000", "164123.225000", "164124.225000", "164125.225000", "164126.225000", "164127.225000", "164128.225000", "164129.225000", "164130.225000", "164131.225000", "164132.225000", "164133.225000", "164134.225000", "164135.225000", "164136.225000", "164137.225000", "164138.225000", "164139.225000", "164140.225000", "164141.225000", "164142.225000", "164143.225000", "164144.225000", "164145.225000", "164146.225000", "164147.225000", "164148.225000", "164149.225000", "164150.225000", "164151.225000", "164152.225000", "164153.225000", "164154.225000", "164155.225000", "164156.225000", "164157.225000", "164158.225000", "164159.225000", "164200.225000", "164201.225000", "164202.225000", "164203.225000", "164204.225000", "164205.225000", "164206.225000", "164207.225000", "164208.225000", "164209.225000", "164210.225000", "164211.225000", "164212.225000", "164213.225000", "164214.225000", "164215.225000", "164216.225000", "164217.225000", "164218.225000", "164219.225000", "164220.225000", "164221.225000", "164222.225000", "164223.225000", "164224.225000", "164225.225000", "164226.225000", "164227.225000", "164228.225000", "164229.225000", "164230.225000", "164231.225000", "164232.225000", "164233.225000", "164234.225000", "164235.225000", "164236.225000", "164237.225000", "164238.225000", "164239.225000", "164240.225000", "164241.225000", "164242.225000", "164243.225000", "164244.225000", "164245.225000", "164246.225000", "164247.225000", "164248.225000", "164249.225000", "164250.225000", "164251.225000", "164252.225000", "164253.225000", "164254.225000", "164255.225000", "164256.225000", "164257.225000", "164258.225000", "164259.225000", "164300.225000", "164301.225000", "164302.225000", "164303.225000", "164304.225000", "164305.225000", "164306.225000", "164307.225000", "164308.225000", "164309.225000", "164310.225000", "164311.225000", "164312.225000", "164313.225000", "164314.225000", "164315.225000", "164316.225000", "164317.225000", "164318.225000", "164319.225000", "164320.225000", "164321.225000", "164322.225000", "164323.225000", "164324.225000", "164325.225000", "164326.225000", "164327.225000", "164328.225000", "164329.225000", "164330.225000", "164331.225000", "164332.225000", "164333.225000", "164334.225000", "164335.225000", "164336.225000", "164337.225000", "164338.225000", "164339.225000", "164340.225000", "164341.225000", "164342.225000", "164343.225000", "164344.225000", "164345.225000", "164346.225000", "164347.225000", "164348.225000", "164349.225000", "164350.225000", "164351.225000", "164352.225000", "164353.225000", "164354.225000", "164355.225000", "164356.225000", "164357.225000", "164358.225000", "164359.225000", "164400.225000", "164401.225000", "164402.225000", "164403.225000", "164404.225000", "164405.225000", "164406.225000", "164407.225000", "164408.225000", "164409.225000", "164410.225000", "164411.225000", "164412.225000", "164413.225000", "164414.225000", "164415.225000", "164416.225000", "164417.225000", "164418.225000", "164419.225000", "164420.225000", "164421.225000", "164422.225000", "164423.225000", "164424.225000", "164425.225000", "164426.225000", "164427.225000", "164428.225000", "164429.225000", "164430.225000", "164431.225000", "164432.225000", "164433.225000", "164434.225000", "164435.225000", "164436.225000", "164437.225000", "164438.225000", "164439.225000", "164440.225000", "164441.225000", "164442.225000", "164443.225000", "164444.225000", "164445.225000", "164446.225000", "164447.225000", "164448.225000", "164449.225000", "164450.225000", "164451.225000", "164452.225000", "164453.225000", "164454.225000", "164455.225000", "164456.225000", "164457.225000", "164458.225000", "164459.225000", "164500.225000", "164501.225000", "164502.225000", "164503.225000", "164504.225000", "164505.225000", "164506.225000", "164507.225000", "164508.225000", "164509.225000", "164510.225000", "164511.225000", "164512.225000", "164513.225000", "164514.225000", "164515.225000", "164516.225000", "164517.225000", "164518.225000", "164519.225000", "164520.225000", "164521.225000", "164522.225000", "164523.225000", "164524.225000", "164525.225000", "164526.225000", "164527.225000", "164528.225000", "164529.225000", "164530.225000", "164531.225000", "164532.225000", "164533.225000", "164534.225000", "164535.225000", "164536.225000", "164537.225000", "164538.225000", "164539.225000", "164540.225000", "164541.225000", "164542.225000", "164543.225000", "164544.225000", "164545.225000", "164546.225000", "164547.225000", "164548.225000", "164549.225000", "164550.225000", "164551.225000", "164552.225000", "164553.225000", "164554.225000", "164555.225000", "164556.225000", "164557.225000", "164558.225000", "164559.225000", "164600.225000", "164601.225000", "164602.225000", "164603.225000", "164604.225000", "164605.225000", "164606.225000", "164607.225000", "164608.225000", "164609.225000", "164610.225000", "164611.225000", "164612.225000", "164613.225000", "164614.225000", "164615.225000", "164616.225000", "164617.225000", "164618.225000", "164619.225000", "164620.225000", "164621.225000", "164622.225000", "164623.225000", "164624.225000", "164625.225000", "164626.225000", "164627.225000", "164628.225000", "164629.225000", "164630.225000", "164631.225000", "164632.225000", "164633.225000", "164634.225000", "164635.225000", "164636.225000", "164637.225000", "164638.225000", "164639.225000", "164640.225000", "164641.225000", "164642.225000", "164643.225000", "164644.225000", "164645.225000", "164646.225000", "164647.225000", "164648.225000", "164649.225000", "164650.225000", "164651.225000", "164652.225000", "164653.225000", "164654.225000", "164655.225000", "164656.225000", "164657.225000", "164658.225000", "164659.225000", "164700.225000", "164701.225000", "164702.225000", "164703.225000", "164704.225000", "164705.225000", "164706.225000", "164707.225000", "164708.225000", "164709.225000", "164710.225000", "164711.225000", "164712.225000", "164713.225000", "164714.225000", "164715.225000", "164716.225000", "164717.225000", "164718.225000", "164719.225000", "164720.225000", "164721.225000", "164722.225000", "164723.225000", "164724.225000", "164725.225000", "164726.225000", "164727.225000", "164728.225000", "164729.225000", "164730.225000", "164731.225000", "164732.225000", "164733.225000", "164734.225000", "164735.225000", "164736.225000", "164737.225000", "164738.225000", "164739.225000", "164740.225000", "164741.225000", "164742.225000", "164743.225000", "164744.225000", "164745.225000", "164746.225000", "164747.225000", "164748.225000", "164749.225000", "164750.225000", "164751.225000", "164752.225000", "164753.225000", "164754.225000", "164755.225000", "164756.225000", "164757.225000", "164758.225000", "164759.225000", "164800.225000", "164801.225000", "164802.225000", "164803.225000", "164804.225000", "164805.225000", "164806.225000", "164807.225000", "164808.225000", "164809.225000", "164810.225000", "164811.225000", "164812.225000", "164813.225000", "164814.225000", "164815.225000", "164816.225000", "164817.225000", "164818.225000", "164819.225000", "164820.225000", "164821.225000", "164822.225000", "164823.225000", "164824.225000", "164825.225000", "164826.225000", "164827.225000", "164828.225000", "164829.225000", "164830.225000", "164831.225000", "164832.225000", "164833.225000", "164834.225000", "164835.225000", "164836.225000", "164837.225000", "164838.225000"],
      "ContentTime": ["163842.711000", "163843.590000", "163844.547000", "163845.570000", "163846.549000", "163847.580000", "163848.580000", "163849.593000", "163850.587000", "163851.540000", "163852.576000", "163853.586000", "163854.646000", "163855.553000", "163856.556000", "163857.572000", "163858.579000", "163859.533000", "163900.567000", "163901.595000", "163902.560000", "163903.550000", "163904.568000", "163905.591000", "163906.545000", "163907.587000", "163908.616000", "163909.607000", "163910.567000", "163911.549000", "163912.597000", "163913.561000", "163914.563000", "163915.554000", "163916.591000", "163917.565000", "163918.608000", "163919.563000", "163920.568000", "163921.554000", "163922.560000", "163923.568000", "163924.569000", "163925.573000", "163926.551000", "163927.600000", "163928.559000", "163929.572000", "163930.546000", "163931.578000", "163932.576000", "163933.567000", "163934.613000", "163935.554000", "163936.560000", "163937.575000", "163938.551000", "163939.545000", "163940.568000", "163941.594000", "163942.609000", "163943.546000", "163944.582000", "163945.572000", "163946.581000", "163947.568000", "163948.566000", "163949.546000", "163950.542000", "163951.573000", "163952.583000", "163953.556000", "163954.557000", "163955.563000", "163956.549000", "163957.562000", "163958.568000", "163959.568000", "164000.556000", "164001.561000", "164002.573000", "164003.561000", "164004.567000", "164005.581000", "164006.548000", "164007.568000", "164008.564000", "164009.581000", "164010.607000", "164011.550000", "164012.560000", "164013.547000", "164014.573000", "164015.558000", "164016.549000", "164017.550000", "164018.545000", "164019.544000", "164020.555000", "164021.586000", "164022.558000", "164023.550000", "164024.567000", "164025.543000", "164026.564000", "164027.565000", "164028.564000", "164029.567000", "164030.549000", "164031.596000", "164032.583000", "164033.599000", "164034.568000", "164035.569000", "164036.561000", "164037.552000", "164038.553000", "164039.583000", "164040.570000", "164041.560000", "164042.568000", "164043.596000", "164044.570000", "164045.567000", "164046.582000", "164047.573000", "164048.552000", "164049.583000", "164050.590000", "164051.590000", "164052.569000", "164053.542000", "164054.580000", "164055.560000", "164056.566000", "164057.599000", "164058.604000", "164059.563000", "164100.579000", "164101.541000", "164102.560000", "164103.563000", "164104.577000", "164105.555000", "164106.565000", "164107.578000", "164108.545000", "164109.568000", "164110.561000", "164111.560000", "164112.548000", "164113.597000", "164114.612000", "164115.572000", "164116.573000", "164117.601000", "164118.552000", "164119.567000", "164120.551000", "164121.536000", "164122.577000", "164123.584000", "164124.582000", "164125.581000", "164126.568000", "164127.628000", "164128.605000", "164129.585000", "164130.570000", "164131.552000", "164132.556000", "164133.583000", "164134.586000", "164135.561000", "164136.561000", "164137.595000", "164138.570000", "164139.595000", "164140.558000", "164141.603000", "164142.596000", "164143.555000", "164144.592000", "164145.562000", "164146.555000", "164147.559000", "164148.567000", "164149.558000", "164150.587000", "164151.584000", "164152.592000", "164153.574000", "164154.563000", "164155.549000", "164156.556000", "164157.568000", "164158.554000", "164159.572000", "164200.597000", "164201.571000", "164202.550000", "164203.563000", "164204.550000", "164205.565000", "164206.535000", "164207.568000", "164208.559000", "164209.542000", "164210.556000", "164211.566000", "164212.561000", "164213.585000", "164214.573000", "164215.527000", "164216.555000", "164217.580000", "164218.620000", "164219.567000", "164220.599000", "164221.553000", "164222.624000", "164223.576000", "164224.571000", "164225.571000", "164226.572000", "164227.541000", "164228.555000", "164229.588000", "164230.555000", "164231.574000", "164232.622000", "164233.584000", "164234.583000", "164235.554000", "164236.558000", "164237.549000", "164238.538000", "164239.560000", "164240.587000", "164241.620000", "164242.565000", "164243.645000", "164244.571000", "164245.560000", "164246.562000", "164247.560000", "164248.576000", "164249.570000", "164250.590000", "164251.615000", "164252.571000", "164253.555000", "164254.556000", "164255.562000", "164256.588000", "164257.573000", "164258.591000", "164259.587000", "164300.562000", "164301.543000", "164302.578000", "164303.566000", "164304.566000", "164305.564000", "164306.604000", "164307.581000", "164308.562000", "164309.582000", "164310.568000", "164311.558000", "164312.580000", "164313.569000", "164314.554000", "164315.539000", "164316.560000", "164317.578000", "164318.541000", "164319.613000", "164320.561000", "164321.579000", "164322.554000", "164323.595000", "164324.541000", "164325.571000", "164326.536000", "164327.567000", "164328.551000", "164329.559000", "164330.569000", "164331.566000", "164332.566000", "164333.551000", "164334.544000", "164335.528000", "164336.542000", "164337.628000", "164338.570000", "164339.558000", "164340.551000", "164341.587000", "164342.566000", "164343.543000", "164344.554000", "164345.571000", "164346.561000", "164347.561000", "164348.578000", "164349.524000", "164350.569000", "164351.542000", "164352.533000", "164353.563000", "164354.557000", "164355.592000", "164356.550000", "164357.556000", "164358.607000", "164359.532000", "164400.619000", "164401.578000", "164402.601000", "164403.547000", "164404.570000", "164405.555000", "164406.569000", "164407.579000", "164408.565000", "164409.613000", "164410.534000", "164411.580000", "164412.568000", "164413.568000", "164414.581000", "164415.627000", "164416.612000", "164417.529000", "164418.544000", "164419.588000", "164420.568000", "164421.538000", "164422.558000", "164423.574000", "164424.566000", "164425.553000", "164426.580000", "164427.535000", "164428.576000", "164429.545000", "164430.558000", "164431.576000", "164432.545000", "164433.570000", "164434.535000", "164435.571000", "164436.560000", "164437.573000", "164438.612000", "164439.515000", "164440.561000", "164441.550000", "164442.549000", "164443.600000", "164444.557000", "164445.575000", "164446.551000", "164447.582000", "164448.579000", "164449.535000", "164450.584000", "164451.599000", "164452.570000", "164453.583000", "164454.567000", "164455.537000", "164456.579000", "164457.572000", "164458.565000", "164459.565000", "164500.561000", "164501.571000", "164502.545000", "164503.557000", "164504.552000", "164505.567000", "164506.527000", "164507.566000", "164508.571000", "164509.626000", "164510.521000", "164511.550000", "164512.554000", "164513.605000", "164514.558000", "164515.569000", "164516.573000", "164517.556000", "164518.549000", "164519.576000", "164520.584000", "164521.553000", "164522.551000", "164523.549000", "164524.566000", "164525.531000", "164526.573000", "164527.557000", "164528.565000", "164529.547000", "164530.564000", "164531.560000", "164532.551000", "164533.559000", "164534.588000", "164535.569000", "164536.581000", "164537.574000", "164538.552000", "164539.581000", "164540.558000", "164541.561000", "164542.576000", "164543.546000", "164544.561000", "164545.580000", "164546.568000", "164547.560000", "164548.565000", "164549.569000", "164550.571000", "164551.583000", "164552.558000", "164553.558000", "164554.553000", "164555.549000", "164556.550000", "164557.607000", "164558.568000", "164559.553000", "164600.565000", "164601.562000", "164602.558000", "164603.543000", "164604.566000", "164605.546000", "164606.532000", "164607.606000", "164608.591000", "164609.554000", "164610.540000", "164611.560000", "164612.549000", "164613.578000", "164614.620000", "164615.572000", "164616.578000", "164617.557000", "164618.560000", "164619.561000", "164620.550000", "164621.564000", "164622.599000", "164623.555000", "164624.564000", "164625.555000", "164626.546000", "164627.564000", "164628.553000", "164629.568000", "164630.573000", "164631.575000", "164632.555000", "164633.552000", "164634.553000", "164635.555000", "164636.551000", "164637.559000", "164638.544000", "164639.621000", "164640.550000", "164641.550000", "164642.553000", "164643.554000", "164644.622000", "164645.573000", "164646.564000", "164647.554000", "164648.528000", "164649.586000", "164650.603000", "164651.556000", "164652.564000", "164653.580000", "164654.539000", "164655.550000", "164656.564000", "164657.567000", "164658.597000", "164659.597000", "164700.572000", "164701.572000", "164702.573000", "164703.554000", "164704.570000", "164705.550000", "164706.571000", "164707.565000", "164708.538000", "164709.561000", "164710.537000", "164711.554000", "164712.559000", "164713.554000", "164714.590000", "164715.569000", "164716.550000", "164717.551000", "164718.553000", "164719.524000", "164720.548000", "164721.556000", "164722.566000", "164723.600000", "164724.557000", "164725.554000", "164726.573000", "164727.558000", "164728.560000", "164729.563000", "164730.559000", "164731.569000", "164732.551000", "164733.558000", "164734.570000", "164735.549000", "164736.549000", "164737.543000", "164738.561000", "164739.561000", "164740.605000", "164741.571000", "164742.557000", "164743.566000", "164744.578000", "164745.596000", "164746.590000", "164747.571000", "164748.563000", "164749.581000", "164750.563000", "164751.561000", "164752.541000", "164753.584000", "164754.563000", "164755.561000", "164756.609000", "164757.575000", "164758.556000", "164759.553000", "164800.604000", "164801.564000", "164802.577000", "164803.527000", "164804.536000", "164805.567000", "164806.539000", "164807.532000", "164808.549000", "164809.585000", "164810.549000", "164811.558000", "164812.558000", "164813.558000", "164814.542000", "164815.595000", "164816.566000", "164817.583000", "164818.505000", "164819.554000", "164820.561000", "164821.537000", "164822.563000", "164823.546000", "164824.572000", "164825.575000", "164826.542000", "164827.547000", "164828.555000", "164829.557000", "164830.564000", "164831.592000", "164832.633000", "164833.595000", "164834.563000", "164835.549000", "164836.581000", "164837.601000", "164838.561000", "164839.592000"],
