{
  "AcquisitionMatrixPE": 96,
  "AcquisitionNumber": 1,
  "AcquisitionTime": "11:30:22.030000",
  "BaseResolution": 96,
  "BodyPartExamined": "BRAIN",
  "ConsistencyInfo": "N4_VE11C_LATEST_20160120",
  "ConversionSoftware": "dcm2niix",
  "ConversionSoftwareVersion": "v1.0.20190902",
  "DeviceSerialNumber": "66112",
  "DwellTime": 8.8e-06,
  "EchoNumber": 2,
  "EchoTime": 0.00738,
  "EchoTime1": 0.00492,
  "EchoTime2": 0.00738,
  "FlipAngle": 60,
  "ImageOrientationPatientDICOM": [
    0.999192,
    0.0327147,
    0.0233662,
    -0.0308772,
    0.996699,
    -0.0750858
  ],
  "ImageType": [
    "ORIGINAL",
    "PRIMARY",
    "P",
    "ND"
  ],
  "ImagingFrequency": 123.252,
  "InPlanePhaseEncodingDirectionDICOM": "COL",
  "InstitutionAddress": "Maynard_3_Hanover_NH_US_03755",
  "InstitutionName": "Dartmouth_College_-_PBS",
  "InstitutionalDepartmentName": "Department",
  "IntendedFor": [
    "func/sub-sid000499_task-movie_run-01_bold.nii.gz",
    "func/sub-sid000499_task-movie_run-02_bold.nii.gz",
    "func/sub-sid000499_task-movie_run-03_bold.nii.gz",
    "func/sub-sid000499_task-movie_run-04_bold.nii.gz",
    "func/sub-sid000499_task-movie_run-05_bold.nii.gz"
  ],
  "MRAcquisitionType": "2D",
  "MagneticFieldStrength": 3,
  "Manufacturer": "Siemens",
  "ManufacturersModelName": "Prisma",
  "Modality": "MR",
  "PartialFourier": 1,
  "PatientPosition": "HFS",
  "PercentPhaseFOV": 100,
  "PhaseEncodingDirection": "j-",
  "PhaseEncodingSteps": 96,
  "PhaseResolution": 1,
  "PixelBandwidth": 590,
  "ProcedureStepDescription": "Gobbini_Matteo_1037_budapest",
  "ProtocolName": "fmap_acq-2.5mm",
  "PulseSequenceDetails": "%SiemensSeq%_gre_field_mapping",
  "ReceiveCoilActiveElements": "HEA;HEP",
  "ReceiveCoilName": "Head_32",
  "ReconMatrixPE": 96,
  "RepetitionTime": 0.675,
  "SAR": 0.0960649,
  "ScanningSequence": "GR",
  "SequenceName": "_fm2d2r",
  "SequenceVariant": "SP",
  "SeriesDescription": "fmap_acq-2.5mm",
  "SeriesNumber": 7,
  "ShimSetting": [
    4145,
    -7697,
    -7307,
    416,
    -35,
    47,
    -14,
    104
  ],
  "SliceThickness": 2.5,
  "SliceTiming": [
    0.33594,
    0,
    0.35156,
    0.01562,
    0.36719,
    0.02344,
    0.375,
    0.03906,
    0.39062,
    0.05469,
    0.40625,
    0.07031,
    0.42188,
    0.08594,
    0.4375,
    0.09375,
    0.44531,
    0.10938,
    0.46094,
    0.125,
    0.47656,
    0.14062,
    0.49219,
    0.14844,
    0.50781,
    0.16406,
    0.52344,
    0.17969,
    0.53125,
    0.19531,
    0.54688,
    0.21094,
    0.5625,
    0.21875,
    0.57812,
    0.23438,
    0.58594,
    0.25,
    0.60156,
    0.26562,
    0.61719,
    0.28125,
    0.63281,
    0.29688,
    0.64844,
    0.30469,
    0.65625,
    0.32031
  ],
  "SoftwareVersions": "syngo_MR_E11",
  "SpacingBetweenSlices": 2.5,
  "StationName": "AWP66112",
  "TxRefAmp": 254.83,
  "dcmmeta_affine": [
    [
      -2.497978925704956,
      -0.07719288021326065,
      0.06436371803283691,
      124.51795196533203
    ],
    [
      -0.0817866250872612,
      2.4917473793029785,
      -0.1857590675354004,
      -105.9566421508789
    ],
    [
      0.058415379375219345,
      0.18771454691886902,
      2.4922561645507812,
      -88.54428100585938
    ],
    [
      0.0,
      0.0,
      0.0,
      1.0
    ]
  ],
  "dcmmeta_reorient_transform": [
    [
      0.0,
      -1.0,
      0.0,
      95.0
    ],
    [
      1.0,
      0.0,
      0.0,
      0.0
    ],
    [
      0.0,
      0.0,
      -1.0,
      47.0
    ],
    [
      0.0,
      0.0,
      0.0,
      1.0
    ]
  ],
  "dcmmeta_shape": [
    96,
    96,
    48
  ],
  "dcmmeta_slice_dim": 2,
  "dcmmeta_version": 0.6,
  "global": {
    "const": {
      "AccessionNumber": "A001445",
      "AcquisitionMatrix": [
        96,
        0,
        0,
        96
      ],
      "AcquisitionNumber": 1,
      "AngioFlag": "N",
      "BitsAllocated": 16,
      "BitsStored": 12,
      "BodyPartExamined": "BRAIN",
      "Columns": 96,
      "EchoNumbers": 2,
      "EchoTime": 7.38,
      "EchoTrainLength": 0,
      "FlipAngle": 60.0,
      "HighBit": 11,
      "ImageOrientationPatient": [
        0.99919156054421,
        0.03271464920506,
        0.02336615211387,
        -0.030877150938,
        0.9966989121574,
        -0.0750858179299
      ],
      "ImageType": [
        "ORIGINAL",
        "PRIMARY",
        "P",
        "ND"
      ],
      "ImagedNucleus": "1H",
      "ImagingFrequency": 123.252412,
      "InPlanePhaseEncodingDirection": "COL",
      "MRAcquisitionType": "2D",
      "MagneticFieldStrength": 3.0,
      "Manufacturer": "SIEMENS",
      "ManufacturerModelName": "Prisma",
      "Modality": "MR",
      "NumberOfAverages": 1.0,
      "NumberOfPhaseEncodingSteps": 96,
      "PercentPhaseFieldOfView": 100.0,
      "PercentSampling": 100.0,
      "PerformedProcedureStepStartTime": "111932.351000",
      "PhotometricInterpretation": "MONOCHROME2",
      "PixelBandwidth": 590.0,
      "PixelRepresentation": 0,
      "PixelSpacing": [
        2.5,
        2.5
      ],
      "ProtocolName": "fmap_acq-2.5mm",
      "RepetitionTime": 675.0,
      "RescaleIntercept": -4096.0,
      "RescaleSlope": 2.0,
      "RescaleType": "US",
      "Rows": 96,
      "SAR": 0.09606484945103,
      "SamplesPerPixel": 1,
      "ScanningSequence": "GR",
      "SequenceName": "*fm2d2r",
      "SequenceVariant": "SP",
      "SeriesDescription": "fmap_acq-2.5mm",
      "SeriesNumber": 7,
      "SeriesTime": "113231.153000",
      "SliceThickness": 2.5,
      "SoftwareVersions": "syngo MR E11",
      "SpacingBetweenSlices": 2.5,
      "SpecificCharacterSet": "ISO_IR 100",
      "StudyID": "1",
      "StudyTime": "111932.242000",
      "TransmitCoilName": "Body",
      "VariableFlipAngleFlag": "N",
      "WindowCenterWidthExplanation": "Algo1",
      "dBdt": 0.0
    },
    "slices": {
      "AcquisitionTime": [
        "113022.030000",
        "113021.692500",
        "113022.045000",
        "113021.707500",
        "113022.060000",
        "113021.722500",
        "113022.072500",
        "113021.735000",
        "113022.087500",
        "113021.750000",
        "113022.102500",
        "113021.765000",
        "113022.115000",
        "113021.777500",
        "113022.130000",
        "113021.792500",
        "113022.142500",
        "113021.805000",
        "113022.157500",
        "113021.820000",
        "113022.172500",
        "113021.835000",
        "113022.185000",
        "113021.847500",
        "113022.200000",
        "113021.862500",
        "113022.215000",
        "113021.877500",
        "113022.227500",
        "113021.890000",
        "113022.242500",
        "113021.905000",
        "113022.255000",
        "113021.917500",
        "113022.270000",
        "113021.932500",
        "113022.285000",
        "113021.947500",
        "113022.297500",
        "113021.960000",
        "113022.312500",
        "113021.975000",
        "113022.325000",
        "113021.990000",
        "113022.340000",
        "113022.002500",
        "113022.355000",
        "113022.017500"
      ],
      "ContentTime": [
        "113231.224000",
        "113231.160000",
        "113231.226000",
        "113231.162000",
        "113231.228000",
        "113231.164000",
        "113231.230000",
        "113231.175000",
        "113231.232000",
        "113231.177000",
        "113231.234000",
        "113231.179000",
        "113231.236000",
        "113231.181000",
        "113231.238000",
        "113231.183000",
        "113231.240000",
        "113231.185000",
        "113231.242000",
        "113231.187000",
        "113231.244000",
        "113231.189000",
        "113231.246000",
        "113231.191000",
        "113231.248000",
        "113231.200000",
        "113231.250000",
        "113231.202000",
        "113231.252000",
        "113231.204000",
        "113231.254000",
        "113231.206000",
        "113231.256000",
        "113231.208000",
        "113231.258000",
        "113231.211000",
        "113231.260000",
        "113231.212000",
        "113231.262000",
        "113231.214000",
        "113231.264000",
        "113231.216000",
        "113231.266000",
        "113231.218000",
        "113231.268000",
        "113231.220000",
        "113231.270000",
        "113231.222000"
      ],
      "CsaImage.ICE_Dims": [
        "X_2_1_1_1_1_1_25_1_1_1_1_36",
        "X_2_1_1_1_1_1_1_1_1_2_1_36",
        "X_2_1_1_1_1_1_26_1_1_3_1_36",
        "X_2_1_1_1_1_1_2_1_1_4_1_36",
        "X_2_1_1_1_1_1_27_1_1_5_1_36",
        "X_2_1_1_1_1_1_3_1_1_6_1_36",
        "X_2_1_1_1_1_1_28_1_1_7_1_36",
        "X_2_1_1_1_1_1_4_1_1_8_1_36",
        "X_2_1_1_1_1_1_29_1_1_9_1_36",
        "X_2_1_1_1_1_1_5_1_1_10_1_36",
        "X_2_1_1_1_1_1_30_1_1_11_1_36",
        "X_2_1_1_1_1_1_6_1_1_12_1_36",
        "X_2_1_1_1_1_1_31_1_1_13_1_36",
        "X_2_1_1_1_1_1_7_1_1_14_1_36",
        "X_2_1_1_1_1_1_32_1_1_15_1_36",
        "X_2_1_1_1_1_1_8_1_1_16_1_36",
        "X_2_1_1_1_1_1_33_1_1_17_1_36",
        "X_2_1_1_1_1_1_9_1_1_18_1_36",
        "X_2_1_1_1_1_1_34_1_1_19_1_36",
        "X_2_1_1_1_1_1_10_1_1_20_1_36",
        "X_2_1_1_1_1_1_35_1_1_21_1_36",
        "X_2_1_1_1_1_1_11_1_1_22_1_36",
        "X_2_1_1_1_1_1_36_1_1_23_1_36",
        "X_2_1_1_1_1_1_12_1_1_24_1_36",
        "X_2_1_1_1_1_1_37_1_1_25_1_36",
        "X_2_1_1_1_1_1_13_1_1_26_1_36",
        "X_2_1_1_1_1_1_38_1_1_27_1_36",
        "X_2_1_1_1_1_1_14_1_1_28_1_36",
        "X_2_1_1_1_1_1_39_1_1_29_1_36",
        "X_2_1_1_1_1_1_15_1_1_30_1_36",
        "X_2_1_1_1_1_1_40_1_1_31_1_36",
        "X_2_1_1_1_1_1_16_1_1_32_1_36",
        "X_2_1_1_1_1_1_41_1_1_33_1_36",
        "X_2_1_1_1_1_1_17_1_1_34_1_36",
        "X_2_1_1_1_1_1_42_1_1_35_1_36",
        "X_2_1_1_1_1_1_18_1_1_36_1_36",
        "X_2_1_1_1_1_1_43_1_1_37_1_36",
        "X_2_1_1_1_1_1_19_1_1_38_1_36",
        "X_2_1_1_1_1_1_44_1_1_39_1_36",
        "X_2_1_1_1_1_1_20_1_1_40_1_36",
        "X_2_1_1_1_1_1_45_1_1_41_1_36",
        "X_2_1_1_1_1_1_21_1_1_42_1_36",
        "X_2_1_1_1_1_1_46_1_1_43_1_36",
        "X_2_1_1_1_1_1_22_1_1_44_1_36",
        "X_2_1_1_1_1_1_47_1_1_45_1_36",
        "X_2_1_1_1_1_1_23_1_1_46_1_36",
        "X_2_1_1_1_1_1_48_1_1_47_1_36",
        "X_2_1_1_1_1_1_24_1_1_48_1_36"
      ],
      "CsaImage.ProtocolSliceNumber": [
        0,
        1,
        2,
        3,
        4,
        5,
        6,
        7,
        8,
        9,
        10,
        11,
        12,
        13,
        14,
        15,
        16,
        17,
        18,
        19,
        20,
        21,
        22,
        23,
        24,
        25,
        26,
        27,
        28,
        29,
        30,
        31,
        32,
        33,
        34,
        35,
        36,
        37,
        38,
        39,
        40,
        41,
        42,
        43,
        44,
        45,
        46,
        47
      ],
      "CsaImage.SlicePosition_PCS": [
        [
          -117.18463926,
          -130.75934939,
          -70.71149441
        ],
        [
          -117.24900286,
          -130.57359032,
          -68.21923825
        ],
        [
          -117.31336634,
          -130.38783125,
          -65.72697445
        ],
        [
          -117.37772993,
          -130.20207218,
          -63.23471829
        ],
        [
          -117.44209353,
          -130.01631312,
          -60.74246212
        ],
        [
          -117.50645701,
          -129.83055405,
          -58.25019833
        ],
        [
          -117.57082061,
          -129.6447945,
          -55.75794217
        ],
        [
          -117.63518421,
          -129.45903544,
          -53.265686
        ],
        [
          -117.69954769,
          -129.27327637,
          -50.77342602
        ],
        [
          -117.76391129,
          -129.0875173,
          -48.28116986
        ],
        [
          -117.82827489,
          -128.90175823,
          -45.78890988
        ],
        [
          -117.89263849,
          -128.71599917,
          -43.29665371
        ],
        [
          -117.95700197,
          -128.5302401,
          -40.80439373
        ],
        [
          -118.02136557,
          -128.34448103,
          -38.31213757
        ],
        [
          -118.08572916,
          -128.15872196,
          -35.81987759
        ],
        [
          -118.15009264,
          -127.9729629,
          -33.32762143
        ],
        [
          -118.21445612,
          -127.78720383,
          -30.83536145
        ],
        [
          -118.27881984,
          -127.60144476,
          -28.34310528
        ],
        [
          -118.34318332,
          -127.41568569,
          -25.8508453
        ],
        [
          -118.4075468,
          -127.22992663,
          -23.35858723
        ],
        [
          -118.47191052,
          -127.04416756,
          -20.86632916
        ],
        [
          -118.536274,
          -126.85840849,
          -18.37407109
        ],
        [
          -118.60063772,
          -126.67264942,
          -15.88181301
        ],
        [
          -118.6650012,
          -126.48689036,
          -13.38955494
        ],
        [
          -118.72936468,
          -126.30113129,
          -10.89729687
        ],
        [
          -118.79372839,
          -126.11537222,
          -8.40503785
        ],
        [
          -118.85809187,
          -125.92961315,
          -5.91277977
        ],
        [
          -118.92245535,
          -125.74385409,
          -3.4205217
        ],
        [
          -118.98681907,
          -125.55809502,
          -0.92826315
        ],
        [
          -119.05118255,
          -125.37233583,
          1.56399492
        ],
        [
          -119.11554603,
          -125.18657676,
          4.05625299
        ],
        [
          -119.17990975,
          -125.0008177,
          6.54851118
        ],
        [
          -119.24427323,
          -124.81505863,
          9.04076937
        ],
        [
          -119.30863671,
          -124.62929956,
          11.53302768
        ],
        [
          -119.37300043,
          -124.44354043,
          14.02528576
        ],
        [
          -119.43736391,
          -124.25778137,
          16.51754383
        ],
        [
          -119.50172738,
          -124.07202224,
          19.0098019
        ],
        [
          -119.5660911,
          -123.88626317,
          21.50205997
        ],
        [
          -119.63045458,
          -123.70050409,
          23.99431804
        ],
        [
          -119.69481806,
          -123.51474501,
          26.48657611
        ],
        [
          -119.75918178,
          -123.32898593,
          28.97883419
        ],
        [
          -119.82354526,
          -123.14322684,
          31.47109226
        ],
        [
          -119.88790874,
          -122.95746778,
          33.96335224
        ],
        [
          -119.95227246,
          -122.77170871,
          36.45561031
        ],
        [
          -120.01663594,
          -122.58594958,
          38.94786838
        ],
        [
          -120.08099942,
          -122.40019051,
          41.44012455
        ],
        [
          -120.14536313,
          -122.21443145,
          43.93238453
        ],
        [
          -120.20972685,
          -122.02867238,
          46.42464069
        ]
      ],
      "CsaImage.TimeAfterStart": [
        1.015,
        0.6775,
        1.03,
        0.6925,
        1.045,
        0.7075,
        1.0575,
        0.72,
        1.0725,
        0.735,
        1.0875,
        0.75,
        1.1,
        0.7625,
        1.115,
        0.7775,
        1.1275,
        0.79,
        1.1425,
        0.805,
        1.1575,
        0.82,
        1.17,
        0.8325,
        1.185,
        0.8475,
        1.2,
        0.8625,
        1.2125,
        0.875,
        1.2275,
        0.89,
        1.24,
        0.9025,
        1.255,
        0.9175,
        1.27,
        0.9325,
        1.2825,
        0.945,
        1.2975,
        0.96,
        1.31,
        0.975,
        1.325,
        0.9875,
        1.34,
        1.0025
      ],
      "ImagePositionPatient": [
        [
          -117.18463925749,
          -130.75934938651,
          -70.711494411156
        ],
        [
          -117.24900285631,
          -130.57359031897,
          -68.219238246606
        ],
        [
          -117.31336633593,
          -130.38783125143,
          -65.72697445266
        ],
        [
          -117.37772993475,
          -130.2020721839,
          -63.23471828811
        ],
        [
          -117.44209353358,
          -130.01631311636,
          -60.742462123559
        ],
        [
          -117.50645701319,
          -129.83055404883,
          -58.250198329613
        ],
        [
          -117.57082061201,
          -129.64479450446,
          -55.757942165063
        ],
        [
          -117.63518421084,
          -129.45903543692,
          -53.265686000512
        ],
        [
          -117.69954769045,
          -129.27327636938,
          -50.773426021264
        ],
        [
          -117.76391128928,
          -129.08751730185,
          -48.281169856713
        ],
        [
          -117.8282748881,
          -128.90175823431,
          -45.788909877465
        ],
        [
          -117.89263848692,
          -128.71599916678,
          -43.296653712914
        ],
        [
          -117.95700196654,
          -128.53024009924,
          -40.804393733666
        ],
        [
          -118.02136556536,
          -128.34448103171,
          -38.312137569115
        ],
        [
          -118.08572916418,
          -128.15872196417,
          -35.819877589867
        ],
        [
          -118.1500926438,
          -127.97296289664,
          -33.327621425317
        ],
        [
          -118.21445612341,
          -127.7872038291,
          -30.835361446069
        ],
        [
          -118.27881984144,
          -127.60144476157,
          -28.343105281518
        ],
        [
          -118.34318332106,
          -127.41568569403,
          -25.85084530227
        ],
        [
          -118.40754680067,
          -127.2299266265,
          -23.35858723037
        ],
        [
          -118.47191051871,
          -127.04416755896,
          -20.866329158471
        ],
        [
          -118.53627399832,
          -126.85840849142,
          -18.374071086571
        ],
        [
          -118.60063771635,
          -126.67264942389,
          -15.881813014672
        ],
        [
          -118.66500119597,
          -126.48689035635,
          -13.389554942773
        ],
        [
          -118.72936467558,
          -126.30113128882,
          -10.897296870873
        ],
        [
          -118.79372839361,
          -126.11537222128,
          -8.4050378452995
        ],
        [
          -118.85809187323,
          -125.92961315375,
          -5.9127797734
        ],
        [
          -118.92245535284,
          -125.74385408621,
          -3.4205217015006
        ],
        [
          -118.98681907088,
          -125.55809501868,
          -0.9282631527641
        ],
        [
          -119.05118255049,
          -125.37233583193,
          1.5639949191354
        ],
        [
          -119.1155460301,
          -125.1865767644,
          4.0562529910348
        ],
        [
          -119.17990974814,
          -125.00081769686,
          6.5485111821435
        ],
        [
          -119.24427322775,
          -124.81505862933,
          9.0407693732522
        ],
        [
          -119.30863670737,
          -124.62929956179,
          11.53302768357
        ],
        [
          -119.3730004254,
          -124.44354043465,
          14.02528575547
        ],
        [
          -119.43736390501,
          -124.25778136712,
          16.517543827369
        ],
        [
          -119.50172738463,
          -124.07202223998,
          19.009801899268
        ],
        [
          -119.56609110266,
          -123.88626317244,
          21.502059971168
        ],
        [
          -119.63045458227,
          -123.70050409,
          23.994318043067
        ],
        [
          -119.69481806189,
          -123.5147450085,
          26.486576114967
        ],
        [
          -119.75918177992,
          -123.32898592513,
          28.978834186866
        ],
        [
          -119.82354525954,
          -123.14322684269,
          31.471092258765
        ],
        [
          -119.88790873915,
          -122.95746777516,
          33.963352238014
        ],
        [
          -119.95227245718,
          -122.77170870762,
          36.455610309913
        ],
        [
          -120.0166359368,
          -122.58594958048,
          38.947868381812
        ],
        [
          -120.08099941641,
          -122.40019051295,
          41.440124546363
        ],
        [
          -120.14536313444,
          -122.21443144541,
          43.932384525611
        ],
        [
          -120.20972685248,
          -122.02867237788,
          46.424640690162
        ]
      ],
      "InstanceCreationTime": [
        "113231.224000",
        "113231.160000",
        "113231.226000",
        "113231.162000",
        "113231.228000",
        "113231.164000",
        "113231.230000",
        "113231.175000",
        "113231.232000",
        "113231.177000",
        "113231.234000",
        "113231.179000",
        "113231.236000",
        "113231.181000",
        "113231.238000",
        "113231.183000",
        "113231.240000",
        "113231.185000",
        "113231.242000",
        "113231.187000",
        "113231.244000",
        "113231.189000",
        "113231.246000",
        "113231.191000",
        "113231.248000",
        "113231.200000",
        "113231.250000",
        "113231.202000",
        "113231.252000",
        "113231.204000",
        "113231.254000",
        "113231.206000",
        "113231.256000",
        "113231.208000",
        "113231.258000",
        "113231.211000",
        "113231.260000",
        "113231.212000",
        "113231.262000",
        "113231.214000",
        "113231.264000",
        "113231.216000",
        "113231.266000",
        "113231.218000",
        "113231.268000",
        "113231.220000",
        "113231.270000",
        "113231.222000"
      ],
      "InstanceNumber": [
        1,
        2,
        3,
        4,
        5,
        6,
        7,
        8,
        9,
        10,
        11,
        12,
        13,
        14,
        15,
        16,
        17,
        18,
        19,
        20,
        21,
        22,
        23,
        24,
        25,
        26,
        27,
        28,
        29,
        30,
        31,
        32,
        33,
        34,
        35,
        36,
        37,
        38,
        39,
        40,
        41,
        42,
        43,
        44,
        45,
        46,
        47,
        48
      ],
      "LargestImagePixelValue": [
        4093,
        4094,
        4094,
        4094,
        4094,
        4094,
        4091,
        4094,
        4094,
        4094,
        4091,
        4095,
        4093,
        4094,
        4094,
        4091,
        4094,
        4095,
        4093,
        4095,
        4089,
        4095,
        4084,
        4094,
        4090,
        4095,
        4085,
        4094,
        4090,
        4092,
        4083,
        4088,
        4094,
        4091,
        4093,
        4093,
        4095,
        4093,
        4094,
        4095,
        4093,
        4094,
        4094,
        4093,
        4094,
        4095,
        4094,
        4095
      ],
      "SliceLocation": [
        -77.191447198668,
        -74.691449219916,
        -72.191443638464,
        -69.691445659711,
        -67.191447680959,
        -64.691442099507,
        -62.191444085324,
        -59.691446106571,
        -57.191444328004,
        -54.691446349251,
        -52.191444567615,
        -49.691446588862,
        -47.191444810295,
        -44.691446831542,
        -42.191445049905,
        -39.691447074222,
        -37.191445295654,
        -34.691447313833,
        -32.191445535265,
        -29.69144565814,
        -27.191445774876,
        -24.691445897751,
        -22.191446014487,
        -19.691446137361,
        -17.191446260236,
        -14.691445426251,
        -12.191445549126,
        -9.6914456720003,
        -7.1914453133761,
        -4.6914454273929,
        -2.1914455502674,
        0.30855445183637,
        2.808554447802,
        5.3085545626077,
        7.8085544503003,
        10.308554327426,
        12.80855420898,
        15.308554092244,
        17.808553970476,
        20.30855384864,
        22.80855373308,
        25.308553611313,
        27.80855538988,
        30.308555273144,
        32.808555154698,
        35.308553130382,
        37.808554915087,
        40.308552896909
      ],
      "SmallestImagePixelValue": [
        5,
        0,
        0,
        0,
        0,
        0,
        0,
        1,
        0,
        0,
        1,
        3,
        0,
        0,
        0,
        0,
        0,
        3,
        0,
        0,
        2,
        3,
        4,
        0,
        1,
        3,
        0,
        0,
        1,
        4,
        1,
        0,
        0,
        0,
        0,
        0,
        9,
        0,
        1,
        0,
        0,
        0,
        1,
        0,
        0,
        0,
        0,
        0
      ],
      "WindowCenter": [
        -310.0,
        -330.0,
        -304.0,
        -236.0,
        -164.0,
        -168.0,
        -152.0,
        -174.0,
        -244.0,
        -312.0,
        -356.0,
        -366.0,
        -360.0,
        -444.0,
        -466.0,
        -476.0,
        -402.0,
        -404.0,
        -296.0,
        -288.0,
        -248.0,
        -230.0,
        -228.0,
        -158.0,
        -112.0,
        -88.0,
        -80.0,
        -138.0,
        -112.0,
        -196.0,
        -178.0,
        -184.0,
        -182.0,
        -186.0,
        -188.0,
        -172.0,
        -206.0,
        -230.0,
        -272.0,
        -304.0,
        -338.0,
        -336.0,
        -360.0,
        -338.0,
        -352.0,
        -342.0,
        -186.0,
        -376.0
      ],
      "WindowWidth": [
        6196.0,
        6140.0,
        6072.0,
        6112.0,
        6164.0,
        6166.0,
        6214.0,
        6162.0,
        6188.0,
        6024.0,
        5926.0,
        5816.0,
        5612.0,
        5332.0,
        5192.0,
        5362.0,
        5694.0,
        5678.0,
        5766.0,
        5808.0,
        5660.0,
        5654.0,
        5294.0,
        5522.0,
        5570.0,
        5540.0,
        5472.0,
        5116.0,
        5240.0,
        4610.0,
        4570.0,
        4586.0,
        4558.0,
        4558.0,
        4556.0,
        4556.0,
        4570.0,
        4602.0,
        4624.0,
        4670.0,
        4690.0,
        4718.0,
        4736.0,
        4730.0,
        4786.0,
        4810.0,
        5438.0,
        4874.0
      ]
    }
  }
}