{
  "AcquisitionMatrixPE": 96,
  "AcquisitionNumber": 1,
  "AcquisitionTime": "12:46:6.015000",
  "BaseResolution": 96,
  "BodyPartExamined": "BRAIN",
  "ConsistencyInfo": "N4_VE11C_LATEST_20160120",
  "ConversionSoftware": "dcm2niix",
  "ConversionSoftwareVersion": "v1.0.20190902",
  "DeviceSerialNumber": "66112",
  "DwellTime": 8.8e-06,
  "EchoNumber": 2,
  "EchoTime": 0.00738,
  "EchoTime1": 0.00492,
  "EchoTime2": 0.00738,
  "FlipAngle": 60,
  "ImageOrientationPatientDICOM": [
    0.998604,
    0.0360301,
    0.0386377,
    -0.0369662,
    0.999033,
    0.023793
  ],
  "ImageType": [
    "ORIGINAL",
    "PRIMARY",
    "P",
    "ND"
  ],
  "ImagingFrequency": 123.252,
  "InPlanePhaseEncodingDirectionDICOM": "COL",
  "InstitutionAddress": "Maynard_3_Hanover_NH_US_03755",
  "InstitutionName": "Dartmouth_College_-_PBS",
  "InstitutionalDepartmentName": "Department",
  "IntendedFor": [
    "func/sub-sid000560_task-movie_run-01_bold.nii.gz",
    "func/sub-sid000560_task-movie_run-02_bold.nii.gz",
    "func/sub-sid000560_task-movie_run-03_bold.nii.gz",
    "func/sub-sid000560_task-movie_run-04_bold.nii.gz",
    "func/sub-sid000560_task-movie_run-05_bold.nii.gz"
  ],
  "MRAcquisitionType": "2D",
  "MagneticFieldStrength": 3,
  "Manufacturer": "Siemens",
  "ManufacturersModelName": "Prisma",
  "Modality": "MR",
  "PartialFourier": 1,
  "PatientPosition": "HFS",
  "PercentPhaseFOV": 100,
  "PhaseEncodingDirection": "j-",
  "PhaseEncodingSteps": 96,
  "PhaseResolution": 1,
  "PixelBandwidth": 590,
  "ProcedureStepDescription": "Gobbini_Matteo_1037_budapest",
  "ProtocolName": "fmap_acq-2.5mm",
  "PulseSequenceDetails": "%SiemensSeq%_gre_field_mapping",
  "ReceiveCoilActiveElements": "HEA;HEP",
  "ReceiveCoilName": "Head_32",
  "ReconMatrixPE": 96,
  "RepetitionTime": 0.675,
  "SAR": 0.0847732,
  "ScanningSequence": "GR",
  "SequenceName": "_fm2d2r",
  "SequenceVariant": "SP",
  "SeriesDescription": "fmap_acq-2.5mm",
  "SeriesNumber": 7,
  "ShimSetting": [
    4137,
    -7708,
    -7314,
    608,
    -31,
    12,
    10,
    46
  ],
  "SliceThickness": 2.5,
  "SliceTiming": [
    0.33594,
    0,
    0.35156,
    0.01562,
    0.35938,
    0.02344,
    0.375,
    0.03906,
    0.39062,
    0.05469,
    0.40625,
    0.07031,
    0.42188,
    0.08594,
    0.4375,
    0.10156,
    0.44531,
    0.10938,
    0.46094,
    0.125,
    0.47656,
    0.14062,
    0.49219,
    0.15625,
    0.50781,
    0.16406,
    0.51562,
    0.17969,
    0.53125,
    0.19531,
    0.54688,
    0.21094,
    0.5625,
    0.22656,
    0.57812,
    0.23438,
    0.58594,
    0.25,
    0.60156,
    0.26562,
    0.61719,
    0.28125,
    0.63281,
    0.28906,
    0.64844,
    0.30469,
    0.66406,
    0.32031
  ],
  "SoftwareVersions": "syngo_MR_E11",
  "SpacingBetweenSlices": 2.5,
  "StationName": "AWP66112",
  "TxRefAmp": 226.645,
  "dcmmeta_affine": [
    [
      -2.496508836746216,
      -0.09241557121276855,
      0.09435749053955078,
      128.03512573242188
    ],
    [
      -0.09007532149553299,
      2.4975831508636475,
      0.06297016143798828,
      -105.35916900634766
    ],
    [
      0.09659434109926224,
      -0.05948255583643913,
      2.497425079345703,
      -69.523681640625
    ],
    [
      0.0,
      0.0,
      0.0,
      1.0
    ]
  ],
  "dcmmeta_reorient_transform": [
    [
      0.0,
      -1.0,
      0.0,
      95.0
    ],
    [
      1.0,
      0.0,
      0.0,
      0.0
    ],
    [
      0.0,
      0.0,
      -1.0,
      47.0
    ],
    [
      0.0,
      0.0,
      0.0,
      1.0
    ]
  ],
  "dcmmeta_shape": [
    96,
    96,
    48
  ],
  "dcmmeta_slice_dim": 2,
  "dcmmeta_version": 0.6,
  "global": {
    "const": {
      "AccessionNumber": "A001351",
      "AcquisitionMatrix": [
        96,
        0,
        0,
        96
      ],
      "AcquisitionNumber": 1,
      "AngioFlag": "N",
      "BitsAllocated": 16,
      "BitsStored": 12,
      "BodyPartExamined": "BRAIN",
      "Columns": 96,
      "EchoNumbers": 2,
      "EchoTime": 7.38,
      "EchoTrainLength": 0,
      "FlipAngle": 60.0,
      "HighBit": 11,
      "ImageOrientationPatient": [
        0.99860350247295,
        0.03603012952722,
        0.03863773563517,
        -0.0369662283299,
        0.99903322771361,
        0.02379302181718
      ],
      "ImageType": [
        "ORIGINAL",
        "PRIMARY",
        "P",
        "ND"
      ],
      "ImagedNucleus": "1H",
      "ImagingFrequency": 123.252306,
      "InPlanePhaseEncodingDirection": "COL",
      "MRAcquisitionType": "2D",
      "MagneticFieldStrength": 3.0,
      "Manufacturer": "SIEMENS",
      "ManufacturerModelName": "Prisma",
      "Modality": "MR",
      "NumberOfAverages": 1.0,
      "NumberOfPhaseEncodingSteps": 96,
      "PercentPhaseFieldOfView": 100.0,
      "PercentSampling": 100.0,
      "PerformedProcedureStepStartTime": "114729.858000",
      "PhotometricInterpretation": "MONOCHROME2",
      "PixelBandwidth": 590.0,
      "PixelRepresentation": 0,
      "PixelSpacing": [
        2.5,
        2.5
      ],
      "ProtocolName": "fmap_acq-2.5mm",
      "RepetitionTime": 675.0,
      "RescaleIntercept": -4096.0,
      "RescaleSlope": 2.0,
      "RescaleType": "US",
      "Rows": 96,
      "SAR": 0.08477324428619,
      "SamplesPerPixel": 1,
      "ScanningSequence": "GR",
      "SequenceName": "*fm2d2r",
      "SequenceVariant": "SP",
      "SeriesDescription": "fmap_acq-2.5mm",
      "SeriesNumber": 7,
      "SeriesTime": "124815.976000",
      "SliceThickness": 2.5,
      "SoftwareVersions": "syngo MR E11",
      "SpacingBetweenSlices": 2.5,
      "SpecificCharacterSet": "ISO_IR 100",
      "StudyID": "3",
      "StudyTime": "114729.692000",
      "TransmitCoilName": "Body",
      "VariableFlipAngleFlag": "N",
      "WindowCenterWidthExplanation": "Algo1",
      "dBdt": 0.0
    },
    "slices": {
      "AcquisitionTime": [
        "124606.015000",
        "124605.677500",
        "124606.030000",
        "124605.692500",
        "124606.042500",
        "124605.705000",
        "124606.057500",
        "124605.720000",
        "124606.072500",
        "124605.735000",
        "124606.085000",
        "124605.747500",
        "124606.100000",
        "124605.762500",
        "124606.115000",
        "124605.777500",
        "124606.127500",
        "124605.790000",
        "124606.142500",
        "124605.805000",
        "124606.155000",
        "124605.817500",
        "124606.170000",
        "124605.832500",
        "124606.185000",
        "124605.847500",
        "124606.197500",
        "124605.860000",
        "124606.212500",
        "124605.875000",
        "124606.227500",
        "124605.890000",
        "124606.240000",
        "124605.902500",
        "124606.255000",
        "124605.917500",
        "124606.267500",
        "124605.930000",
        "124606.282500",
        "124605.945000",
        "124606.297500",
        "124605.960000",
        "124606.310000",
        "124605.972500",
        "124606.325000",
        "124605.987500",
        "124606.340000",
        "124606.002500"
      ],
      "ContentTime": [
        "124816.036000",
        "124815.980000",
        "124816.038000",
        "124815.983000",
        "124816.040000",
        "124815.985000",
        "124816.042000",
        "124815.987000",
        "124816.044000",
        "124815.989000",
        "124816.046000",
        "124815.991000",
        "124816.048000",
        "124815.994000",
        "124816.050000",
        "124815.996000",
        "124816.052000",
        "124815.998000",
        "124816.054000",
        "124816.002000",
        "124816.056000",
        "124816.004000",
        "124816.058000",
        "124816.006000",
        "124816.061000",
        "124816.008000",
        "124816.063000",
        "124816.010000",
        "124816.065000",
        "124816.013000",
        "124816.067000",
        "124816.015000",
        "124816.069000",
        "124816.017000",
        "124816.071000",
        "124816.019000",
        "124816.073000",
        "124816.022000",
        "124816.075000",
        "124816.024000",
        "124816.077000",
        "124816.026000",
        "124816.079000",
        "124816.028000",
        "124816.081000",
        "124816.031000",
        "124816.088000",
        "124816.033000"
      ],
      "CsaImage.ICE_Dims": [
        "X_2_1_1_1_1_1_25_1_1_1_1_18",
        "X_2_1_1_1_1_1_1_1_1_2_1_18",
        "X_2_1_1_1_1_1_26_1_1_3_1_18",
        "X_2_1_1_1_1_1_2_1_1_4_1_18",
        "X_2_1_1_1_1_1_27_1_1_5_1_18",
        "X_2_1_1_1_1_1_3_1_1_6_1_18",
        "X_2_1_1_1_1_1_28_1_1_7_1_18",
        "X_2_1_1_1_1_1_4_1_1_8_1_18",
        "X_2_1_1_1_1_1_29_1_1_9_1_18",
        "X_2_1_1_1_1_1_5_1_1_10_1_18",
        "X_2_1_1_1_1_1_30_1_1_11_1_18",
        "X_2_1_1_1_1_1_6_1_1_12_1_18",
        "X_2_1_1_1_1_1_31_1_1_13_1_18",
        "X_2_1_1_1_1_1_7_1_1_14_1_18",
        "X_2_1_1_1_1_1_32_1_1_15_1_18",
        "X_2_1_1_1_1_1_8_1_1_16_1_18",
        "X_2_1_1_1_1_1_33_1_1_17_1_18",
        "X_2_1_1_1_1_1_9_1_1_18_1_18",
        "X_2_1_1_1_1_1_34_1_1_19_1_18",
        "X_2_1_1_1_1_1_10_1_1_20_1_18",
        "X_2_1_1_1_1_1_35_1_1_21_1_18",
        "X_2_1_1_1_1_1_11_1_1_22_1_18",
        "X_2_1_1_1_1_1_36_1_1_23_1_18",
        "X_2_1_1_1_1_1_12_1_1_24_1_18",
        "X_2_1_1_1_1_1_37_1_1_25_1_18",
        "X_2_1_1_1_1_1_13_1_1_26_1_18",
        "X_2_1_1_1_1_1_38_1_1_27_1_18",
        "X_2_1_1_1_1_1_14_1_1_28_1_18",
        "X_2_1_1_1_1_1_39_1_1_29_1_18",
        "X_2_1_1_1_1_1_15_1_1_30_1_18",
        "X_2_1_1_1_1_1_40_1_1_31_1_18",
        "X_2_1_1_1_1_1_16_1_1_32_1_18",
        "X_2_1_1_1_1_1_41_1_1_33_1_18",
        "X_2_1_1_1_1_1_17_1_1_34_1_18",
        "X_2_1_1_1_1_1_42_1_1_35_1_18",
        "X_2_1_1_1_1_1_18_1_1_36_1_18",
        "X_2_1_1_1_1_1_43_1_1_37_1_18",
        "X_2_1_1_1_1_1_19_1_1_38_1_18",
        "X_2_1_1_1_1_1_44_1_1_39_1_18",
        "X_2_1_1_1_1_1_20_1_1_40_1_18",
        "X_2_1_1_1_1_1_45_1_1_41_1_18",
        "X_2_1_1_1_1_1_21_1_1_42_1_18",
        "X_2_1_1_1_1_1_46_1_1_43_1_18",
        "X_2_1_1_1_1_1_22_1_1_44_1_18",
        "X_2_1_1_1_1_1_47_1_1_45_1_18",
        "X_2_1_1_1_1_1_23_1_1_46_1_18",
        "X_2_1_1_1_1_1_48_1_1_47_1_18",
        "X_2_1_1_1_1_1_24_1_1_48_1_18"
      ],
      "CsaImage.ProtocolSliceNumber": [
        0,
        1,
        2,
        3,
        4,
        5,
        6,
        7,
        8,
        9,
        10,
        11,
        12,
        13,
        14,
        15,
        16,
        17,
        18,
        19,
        20,
        21,
        22,
        23,
        24,
        25,
        26,
        27,
        28,
        29,
        30,
        31,
        32,
        33,
        34,
        35,
        36,
        37,
        38,
        39,
        40,
        41,
        42,
        43,
        44,
        45,
        46,
        47
      ],
      "CsaImage.SlicePosition_PCS": [
        [
          -119.25562784,
          -131.91121996,
          -75.1745217
        ],
        [
          -119.34998557,
          -131.97419013,
          -72.67709281
        ],
        [
          -119.44434353,
          -132.03716029,
          -70.17967155
        ],
        [
          -119.53870102,
          -132.10013045,
          -67.68224647
        ],
        [
          -119.63305899,
          -132.16310061,
          -65.18482139
        ],
        [
          -119.72741696,
          -132.22607077,
          -62.68739631
        ],
        [
          -119.82177445,
          -132.28904093,
          -60.18997123
        ],
        [
          -119.91613242,
          -132.35201109,
          -57.69254615
        ],
        [
          -120.01049038,
          -132.41498126,
          -55.19512107
        ],
        [
          -120.10484787,
          -132.47795142,
          -52.69769599
        ],
        [
          -120.19920584,
          -132.54092253,
          -50.20027091
        ],
        [
          -120.29356333,
          -132.60389269,
          -47.70284583
        ],
        [
          -120.3879213,
          -132.66686286,
          -45.20542075
        ],
        [
          -120.48227927,
          -132.72983302,
          -42.70799567
        ],
        [
          -120.57663676,
          -132.79280318,
          -40.21057059
        ],
        [
          -120.67099472,
          -132.85577334,
          -37.71314551
        ],
        [
          -120.76535269,
          -132.9187435,
          -35.21572234
        ],
        [
          -120.85971018,
          -132.98171366,
          -32.71829726
        ],
        [
          -120.95406815,
          -133.04468382,
          -30.22087218
        ],
        [
          -121.04842564,
          -133.10765399,
          -27.7234471
        ],
        [
          -121.14278361,
          -133.17062415,
          -25.22602203
        ],
        [
          -121.23714158,
          -133.23359431,
          -22.72859695
        ],
        [
          -121.33149907,
          -133.29656447,
          -20.23117187
        ],
        [
          -121.42585703,
          -133.35953463,
          -17.73374679
        ],
        [
          -121.520215,
          -133.42250479,
          -15.23632171
        ],
        [
          -121.61457249,
          -133.48547495,
          -12.73889711
        ],
        [
          -121.70893046,
          -133.54844512,
          -10.24147203
        ],
        [
          -121.80328795,
          -133.61141528,
          -7.74404704
        ],
        [
          -121.89764592,
          -133.67438544,
          -5.24662211
        ],
        [
          -121.99200388,
          -133.7373556,
          -2.74919726
        ],
        [
          -122.08636137,
          -133.80032672,
          -0.25177219
        ],
        [
          -122.18071934,
          -133.86329688,
          2.24565289
        ],
        [
          -122.27507731,
          -133.92626704,
          4.74307797
        ],
        [
          -122.3694348,
          -133.9892372,
          7.24050305
        ],
        [
          -122.46379277,
          -134.05220736,
          9.73792718
        ],
        [
          -122.55815026,
          -134.11517752,
          12.23535226
        ],
        [
          -122.65250823,
          -134.17814768,
          14.73277734
        ],
        [
          -122.74686619,
          -134.24111785,
          17.23020242
        ],
        [
          -122.84122368,
          -134.30408801,
          19.7276275
        ],
        [
          -122.93558165,
          -134.36705817,
          22.22505257
        ],
        [
          -123.02993962,
          -134.43002833,
          24.72247765
        ],
        [
          -123.12429711,
          -134.49299849,
          27.21990273
        ],
        [
          -123.21865508,
          -134.55596865,
          29.71732781
        ],
        [
          -123.31301257,
          -134.61893881,
          32.21475289
        ],
        [
          -123.40737053,
          -134.68190898,
          34.71217797
        ],
        [
          -123.50172802,
          -134.74487914,
          37.20960305
        ],
        [
          -123.59608647,
          -134.8078493,
          39.70702813
        ],
        [
          -123.69044396,
          -134.87081946,
          42.20445321
        ]
      ],
      "CsaImage.TimeAfterStart": [
        1.015,
        0.6775,
        1.03,
        0.6925,
        1.0425,
        0.705,
        1.0575,
        0.72,
        1.0725,
        0.735,
        1.085,
        0.7475,
        1.1,
        0.7625,
        1.115,
        0.7775,
        1.1275,
        0.79,
        1.1425,
        0.805,
        1.155,
        0.8175,
        1.17,
        0.8325,
        1.185,
        0.8475,
        1.1975,
        0.86,
        1.2125,
        0.875,
        1.2275,
        0.89,
        1.24,
        0.9025,
        1.255,
        0.9175,
        1.2675,
        0.93,
        1.2825,
        0.945,
        1.2975,
        0.96,
        1.31,
        0.9725,
        1.325,
        0.9875,
        1.34,
        1.0025
      ],
      "ImagePositionPatient": [
        [
          -119.25562783682,
          -131.91121996485,
          -75.174521704829
        ],
        [
          -119.34998556578,
          -131.97419012628,
          -72.677092810786
        ],
        [
          -119.44434353315,
          -132.03716028772,
          -70.179671546137
        ],
        [
          -119.53870102369,
          -132.10013044916,
          -67.682246466792
        ],
        [
          -119.63305899107,
          -132.1631006106,
          -65.184821387446
        ],
        [
          -119.72741695845,
          -132.22607077204,
          -62.6873963081
        ],
        [
          -119.82177444898,
          -132.28904093347,
          -60.189971228755
        ],
        [
          -119.91613241636,
          -132.35201109491,
          -57.692546149409
        ],
        [
          -120.01049038374,
          -132.41498125635,
          -55.195121070063
        ],
        [
          -120.10484787428,
          -132.47795141779,
          -52.697695990718
        ],
        [
          -120.19920584165,
          -132.5409225329,
          -50.200270911372
        ],
        [
          -120.29356333219,
          -132.60389269434,
          -47.702845832026
        ],
        [
          -120.38792129957,
          -132.66686285578,
          -45.20542075268
        ],
        [
          -120.48227926695,
          -132.72983301722,
          -42.707995673335
        ],
        [
          -120.57663675749,
          -132.79280317865,
          -40.210570593989
        ],
        [
          -120.67099472486,
          -132.85577334009,
          -37.713145514643
        ],
        [
          -120.76535269224,
          -132.91874350153,
          -35.215722342646
        ],
        [
          -120.85971018278,
          -132.98171366297,
          -32.718297263301
        ],
        [
          -120.95406815016,
          -133.0446838244,
          -30.220872183955
        ],
        [
          -121.0484256407,
          -133.10765398584,
          -27.723447104609
        ],
        [
          -121.14278360807,
          -133.17062414728,
          -25.226022025263
        ],
        [
          -121.23714157545,
          -133.23359430872,
          -22.728596945918
        ],
        [
          -121.33149906599,
          -133.29656447016,
          -20.231171866572
        ],
        [
          -121.42585703337,
          -133.35953463159,
          -17.733746787226
        ],
        [
          -121.52021500074,
          -133.42250479303,
          -15.236321707881
        ],
        [
          -121.61457249128,
          -133.48547495447,
          -12.738897105372
        ],
        [
          -121.70893045866,
          -133.54844511591,
          -10.241472026026
        ],
        [
          -121.8032879492,
          -133.61141527735,
          -7.7440470360877
        ],
        [
          -121.89764591658,
          -133.67438543878,
          -5.2466221057536
        ],
        [
          -121.99200388395,
          -133.73735560022,
          -2.7491972648264
        ],
        [
          -122.08636137449,
          -133.80032671534,
          -0.2517721854807
        ],
        [
          -122.18071934187,
          -133.86329687677,
          2.245652893865
        ],
        [
          -122.27507730924,
          -133.92626703821,
          4.7430779732107
        ],
        [
          -122.36943479978,
          -133.98923719965,
          7.2405030525564
        ],
        [
          -122.46379276716,
          -134.05220736109,
          9.7379271782278
        ],
        [
          -122.5581502577,
          -134.11517752253,
          12.235352257573
        ],
        [
          -122.65250822508,
          -134.17814768396,
          14.732777336919
        ],
        [
          -122.74686619245,
          -134.2411178454,
          17.230202416265
        ],
        [
          -122.84122368299,
          -134.30408800684,
          19.727627495611
        ],
        [
          -122.93558165037,
          -134.36705816828,
          22.225052574956
        ],
        [
          -123.02993961775,
          -134.43002832972,
          24.722477654302
        ],
        [
          -123.12429710829,
          -134.49299849115,
          27.219902733648
        ],
        [
          -123.21865507566,
          -134.55596865259,
          29.717327812993
        ],
        [
          -123.3130125662,
          -134.61893881403,
          32.214752892339
        ],
        [
          -123.40737053358,
          -134.68190897547,
          34.712177971685
        ],
        [
          -123.50172802412,
          -134.7448791369,
          37.209603051031
        ],
        [
          -123.59608646833,
          -134.80784929834,
          39.707028130376
        ],
        [
          -123.69044395887,
          -134.87081945978,
          42.204453209722
        ]
      ],
      "InstanceCreationTime": [
        "124816.036000",
        "124815.980000",
        "124816.038000",
        "124815.983000",
        "124816.040000",
        "124815.985000",
        "124816.042000",
        "124815.987000",
        "124816.044000",
        "124815.989000",
        "124816.046000",
        "124815.991000",
        "124816.048000",
        "124815.994000",
        "124816.050000",
        "124815.996000",
        "124816.052000",
        "124815.998000",
        "124816.054000",
        "124816.002000",
        "124816.056000",
        "124816.004000",
        "124816.058000",
        "124816.006000",
        "124816.061000",
        "124816.008000",
        "124816.063000",
        "124816.010000",
        "124816.065000",
        "124816.013000",
        "124816.067000",
        "124816.015000",
        "124816.069000",
        "124816.017000",
        "124816.071000",
        "124816.019000",
        "124816.073000",
        "124816.022000",
        "124816.075000",
        "124816.024000",
        "124816.077000",
        "124816.026000",
        "124816.079000",
        "124816.028000",
        "124816.081000",
        "124816.031000",
        "124816.088000",
        "124816.033000"
      ],
      "InstanceNumber": [
        1,
        2,
        3,
        4,
        5,
        6,
        7,
        8,
        9,
        10,
        11,
        12,
        13,
        14,
        15,
        16,
        17,
        18,
        19,
        20,
        21,
        22,
        23,
        24,
        25,
        26,
        27,
        28,
        29,
        30,
        31,
        32,
        33,
        34,
        35,
        36,
        37,
        38,
        39,
        40,
        41,
        42,
        43,
        44,
        45,
        46,
        47,
        48
      ],
      "LargestImagePixelValue": [
        4091,
        4095,
        4092,
        4095,
        4094,
        4091,
        4095,
        4095,
        4094,
        4095,
        4092,
        4094,
        4095,
        4094,
        4093,
        4094,
        4091,
        4095,
        4094,
        4093,
        4094,
        4094,
        4093,
        4094,
        4090,
        4094,
        4094,
        4093,
        4094,
        4094,
        4095,
        4094,
        4091,
        4094,
        4094,
        4094,
        4095,
        4090,
        4095,
        4094,
        4094,
        4095,
        4092,
        4095,
        4095,
        4094,
        4094,
        4094
      ],
      "SliceLocation": [
        -67.273420119557,
        -64.77341617895,
        -62.273419850882,
        -59.773419730042,
        -57.273419591206,
        -54.773419452369,
        -52.273419331529,
        -49.773419192693,
        -47.273419053856,
        -44.773418933016,
        -42.273418770158,
        -39.773418649319,
        -37.273418510482,
        -34.773418371645,
        -32.273418250806,
        -29.773418111969,
        -27.273419878516,
        -24.773419757677,
        -22.27341961884,
        -19.773419498001,
        -17.273419359164,
        -14.773419220327,
        -12.273419099488,
        -9.773418960651,
        -7.2734188218142,
        -4.7734191773208,
        -2.273419038484,
        0.22658099304054,
        2.7265809830192,
        5.2265808836829,
        7.7265810285436,
        10.22658116738,
        12.726581306217,
        15.226581427057,
        17.726580613201,
        20.226580734041,
        22.726580872878,
        25.226581011714,
        27.726581132554,
        30.226581271391,
        32.726581410227,
        35.226581531067,
        37.726581669904,
        40.226581790743,
        42.72658192958,
        45.226582050419,
        47.726582207253,
        50.226582328093
      ],
      "SmallestImagePixelValue": [
        0,
        2,
        0,
        2,
        0,
        0,
        0,
        1,
        0,
        0,
        0,
        0,
        0,
        3,
        1,
        0,
        0,
        9,
        3,
        1,
        3,
        3,
        0,
        1,
        0,
        1,
        0,
        1,
        0,
        1,
        0,
        0,
        0,
        1,
        1,
        2,
        0,
        0,
        0,
        1,
        0,
        0,
        0,
        0,
        0,
        0,
        0,
        0
      ],
      "WindowCenter": [
        -264.0,
        -234.0,
        -240.0,
        -152.0,
        -134.0,
        -148.0,
        -146.0,
        -182.0,
        -198.0,
        -376.0,
        -364.0,
        -326.0,
        -346.0,
        -282.0,
        -334.0,
        -186.0,
        -122.0,
        -130.0,
        -86.0,
        -116.0,
        -104.0,
        -140.0,
        -128.0,
        -98.0,
        -102.0,
        -106.0,
        -120.0,
        -226.0,
        -190.0,
        -174.0,
        -174.0,
        -182.0,
        -144.0,
        -10.0,
        -30.0,
        -62.0,
        -28.0,
        -198.0,
        -60.0,
        -142.0,
        -290.0,
        -272.0,
        -312.0,
        -240.0,
        -262.0,
        -268.0,
        -272.0,
        -316.0
      ],
      "WindowWidth": [
        5904.0,
        5918.0,
        5904.0,
        6072.0,
        6112.0,
        6076.0,
        5994.0,
        5792.0,
        5484.0,
        4850.0,
        4828.0,
        4750.0,
        4730.0,
        5064.0,
        4748.0,
        5538.0,
        5562.0,
        5446.0,
        5484.0,
        5352.0,
        5392.0,
        5262.0,
        5370.0,
        5358.0,
        5232.0,
        5148.0,
        5050.0,
        4624.0,
        4614.0,
        4590.0,
        4606.0,
        4608.0,
        4602.0,
        5164.0,
        5142.0,
        5102.0,
        5288.0,
        4684.0,
        5442.0,
        5212.0,
        4786.0,
        4820.0,
        4870.0,
        5694.0,
        5862.0,
        6032.0,
        6046.0,
        6280.0
      ]
    }
  }
}