{
  "AcquisitionMatrixPE": 96,
  "AcquisitionNumber": 1,
  "AcquisitionTime": "19:55:29.417500",
  "BandwidthPerPixelPhaseEncode": 18.939,
  "BaseResolution": 96,
  "BodyPartExamined": "BRAIN",
  "ConsistencyInfo": "N4_VE11C_LATEST_20160120",
  "ConversionSoftware": "dcm2niix",
  "ConversionSoftwareVersion": "v1.0.20190902",
  "DerivedVendorReportedEchoSpacing": 0.000550011,
  "DeviceSerialNumber": "66112",
  "DwellTime": 2.2e-06,
  "EchoTime": 0.033,
  "EchoTrainLength": 96,
  "EffectiveEchoSpacing": 0.000550011,
  "FlipAngle": 59,
  "ImageOrientationPatientDICOM": [0.999389, 0.0348209, 0.00316865, -0.0347248, 0.999045, -0.0265284],
  "ImageType": [
    "ORIGINAL",
    "PRIMARY",
    "FMRI",
    "NONE",
    "ND",
    "NORM",
    "MOSAIC"
],
  "ImagingFrequency": 123.252,
  "InPlanePhaseEncodingDirectionDICOM": "COL",
  "InstitutionAddress": "Maynard_3_Hanover_NH_US_03755",
  "InstitutionName": "Dartmouth_College_-_PBS",
  "InstitutionalDepartmentName": "Department",
  "MRAcquisitionType": "2D",
  "MagneticFieldStrength": 3,
  "Manufacturer": "Siemens",
  "ManufacturersModelName": "Prisma",
  "Modality": "MR",
  "MultibandAccelerationFactor": 4,
  "PartialFourier": 1,
  "PatientPosition": "HFS",
  "PercentPhaseFOV": 100,
  "PhaseEncodingDirection": "j-",
  "PhaseEncodingSteps": 96,
  "PhaseResolution": 1,
  "PixelBandwidth": 2365,
  "ProcedureStepDescription": "Gobbini_Matteo_1037_budapest",
  "ProtocolName": "func_run-04_task-movie",
  "PulseSequenceDetails": "%SiemensSeq%_ep2d_bold",
  "ReceiveCoilActiveElements": "HEA;HEP",
  "ReceiveCoilName": "Head_32",
  "ReconMatrixPE": 96,
  "RefLinesPE": 12,
  "RepetitionTime": 1,
  "SAR": 0.0624055,
  "ScanOptions": "FS",
  "ScanningSequence": "EP",
  "SequenceName": "_epfid2d1_96",
  "SequenceVariant": "SK",
  "SeriesDescription": "func_run-04_task-movie",
  "SeriesNumber": 29,
  "ShimSetting": [4141, -7719, -7232, 517, -69, -284, -7, 138],
  "SliceThickness": 2.5,
  "SliceTiming": [0.735, 0, 0.49, 0.0825, 0.5725, 0.165, 0.655, 0.3275, 0.8175, 0.41, 0.9, 0.245, 0.735, 0, 0.49, 0.0825, 0.5725, 0.165, 0.655, 0.3275, 0.8175, 0.41, 0.9, 0.245, 0.735, 0, 0.49, 0.0825, 0.5725, 0.165, 0.655, 0.3275, 0.8175, 0.41, 0.9, 0.245, 0.735, 0, 0.49, 0.0825, 0.5725, 0.165, 0.655, 0.3275, 0.8175, 0.41, 0.9, 0.245],
  "SoftwareVersions": "syngo_MR_E11",
  "SpacingBetweenSlices": 2.5,
  "StationName": "AWP66112",
  "TaskName": "movie",
  "TotalReadoutTime": 0.0522511,
  "TxRefAmp": 282.943,
  "dcmmeta_affine": [
    [-2.498471260070801, -0.08681192994117737, 0.01022340264171362, 130.76321411132812],
    [-0.08705215156078339, 2.4976119995117188, -0.06600525230169296, -102.7792739868164],
    [0.007921620272099972, 0.06632088124752045, 2.499107599258423, -78.4034194946289],
    [0.0, 0.0, 0.0, 1.0]
],
  "dcmmeta_reorient_transform": [
    [0.0, -1.0, 0.0, 95.0],
    [1.0, 0.0, 0.0, 0.0],
    [0.0, 0.0, 1.0, 0.0],
    [0.0, 0.0, 0.0, 1.0]
],
  "dcmmeta_shape": [96, 96, 48, 618],
  "dcmmeta_slice_dim": 2,
  "dcmmeta_version": 0.6,
  "global": {
    "const": {
      "AccessionNumber": "A001111",
      "AcquisitionMatrix": [96, 0, 0, 96],
      "AngioFlag": "N",
      "BitsAllocated": 16,
      "BitsStored": 12,
      "BodyPartExamined": "BRAIN",
      "Columns": 672,
      "EchoNumbers": 1,
      "EchoTime": 33.0,
      "EchoTrainLength": 96,
      "FlipAngle": 59.0,
      "HighBit": 11,
      "ImageOrientationPatient": [0.9993885467446, 0.03482086021312, 0.00316864793407, -0.034724771572, 0.9990447621217, -0.0265283530673],
      "ImagePositionPatient": [-817.07400367827, -878.87710208559, -55.283945100177],
      "ImageType": [
        "ORIGINAL",
        "PRIMARY",
        "FMRI",
        "NONE",
        "ND",
        "NORM",
        "MOSAIC"
],
      "ImagedNucleus": "1H",
      "ImagingFrequency": 123.252287,
      "InPlanePhaseEncodingDirection": "COL",
      "MRAcquisitionType": "2D",
      "MagneticFieldStrength": 3.0,
      "Manufacturer": "SIEMENS",
      "ManufacturerModelName": "Prisma",
      "Modality": "MR",
      "NumberOfAverages": 1.0,
      "NumberOfPhaseEncodingSteps": 96,
      "PercentPhaseFieldOfView": 100.0,
      "PercentSampling": 100.0,
      "PerformedProcedureStepStartTime": "190945.721000",
      "PhotometricInterpretation": "MONOCHROME2",
      "PixelBandwidth": 2365.0,
      "PixelRepresentation": 0,
      "PixelSpacing": [2.5, 2.5],
      "ProtocolName": "func_run-04_task-movie",
      "RepetitionTime": 1000.0,
      "Rows": 672,
      "SAR": 0.06240546872939,
      "SamplesPerPixel": 1,
      "ScanOptions": "FS",
      "ScanningSequence": "EP",
      "SequenceName": "*epfid2d1_96",
      "SequenceVariant": "SK",
      "SeriesDescription": "func_run-04_task-movie",
      "SeriesNumber": 29,
      "SeriesTime": "195530.242000",
      "SliceLocation": -75.127102765364,
      "SliceThickness": 2.5,
      "SmallestImagePixelValue": 0,
      "SoftwareVersions": "syngo MR E11",
      "SpacingBetweenSlices": 2.4999999246589,
      "SpecificCharacterSet": "ISO_IR 100",
      "StudyID": "1",
      "StudyTime": "190945.661000",
      "TransmitCoilName": "Body",
      "VariableFlipAngleFlag": "N",
      "WindowCenterWidthExplanation": "Algo1",
      "dBdt": 0.0},
    "slices": {}
  },
  "time": {
    "samples": {
      "AcquisitionNumber": [1, 2, 3, 4, 5, 6, 7, 8, 9, 10, 11, 12, 13, 14, 15, 16, 17, 18, 19, 20, 21, 22, 23, 24, 25, 26, 27, 28, 29, 30, 31, 32, 33, 34, 35, 36, 37, 38, 39, 40, 41, 42, 43, 44, 45, 46, 47, 48, 49, 50, 51, 52, 53, 54, 55, 56, 57, 58, 59, 60, 61, 62, 63, 64, 65, 66, 67, 68, 69, 70, 71, 72, 73, 74, 75, 76, 77, 78, 79, 80, 81, 82, 83, 84, 85, 86, 87, 88, 89, 90, 91, 92, 93, 94, 95, 96, 97, 98, 99, 100, 101, 102, 103, 104, 105, 106, 107, 108, 109, 110, 111, 112, 113, 114, 115, 116, 117, 118, 119, 120, 121, 122, 123, 124, 125, 126, 127, 128, 129, 130, 131, 132, 133, 134, 135, 136, 137, 138, 139, 140, 141, 142, 143, 144, 145, 146, 147, 148, 149, 150, 151, 152, 153, 154, 155, 156, 157, 158, 159, 160, 161, 162, 163, 164, 165, 166, 167, 168, 169, 170, 171, 172, 173, 174, 175, 176, 177, 178, 179, 180, 181, 182, 183, 184, 185, 186, 187, 188, 189, 190, 191, 192, 193, 194, 195, 196, 197, 198, 199, 200, 201, 202, 203, 204, 205, 206, 207, 208, 209, 210, 211, 212, 213, 214, 215, 216, 217, 218, 219, 220, 221, 222, 223, 224, 225, 226, 227, 228, 229, 230, 231, 232, 233, 234, 235, 236, 237, 238, 239, 240, 241, 242, 243, 244, 245, 246, 247, 248, 249, 250, 251, 252, 253, 254, 255, 256, 257, 258, 259, 260, 261, 262, 263, 264, 265, 266, 267, 268, 269, 270, 271, 272, 273, 274, 275, 276, 277, 278, 279, 280, 281, 282, 283, 284, 285, 286, 287, 288, 289, 290, 291, 292, 293, 294, 295, 296, 297, 298, 299, 300, 301, 302, 303, 304, 305, 306, 307, 308, 309, 310, 311, 312, 313, 314, 315, 316, 317, 318, 319, 320, 321, 322, 323, 324, 325, 326, 327, 328, 329, 330, 331, 332, 333, 334, 335, 336, 337, 338, 339, 340, 341, 342, 343, 344, 345, 346, 347, 348, 349, 350, 351, 352, 353, 354, 355, 356, 357, 358, 359, 360, 361, 362, 363, 364, 365, 366, 367, 368, 369, 370, 371, 372, 373, 374, 375, 376, 377, 378, 379, 380, 381, 382, 383, 384, 385, 386, 387, 388, 389, 390, 391, 392, 393, 394, 395, 396, 397, 398, 399, 400, 401, 402, 403, 404, 405, 406, 407, 408, 409, 410, 411, 412, 413, 414, 415, 416, 417, 418, 419, 420, 421, 422, 423, 424, 425, 426, 427, 428, 429, 430, 431, 432, 433, 434, 435, 436, 437, 438, 439, 440, 441, 442, 443, 444, 445, 446, 447, 448, 449, 450, 451, 452, 453, 454, 455, 456, 457, 458, 459, 460, 461, 462, 463, 464, 465, 466, 467, 468, 469, 470, 471, 472, 473, 474, 475, 476, 477, 478, 479, 480, 481, 482, 483, 484, 485, 486, 487, 488, 489, 490, 491, 492, 493, 494, 495, 496, 497, 498, 499, 500, 501, 502, 503, 504, 505, 506, 507, 508, 509, 510, 511, 512, 513, 514, 515, 516, 517, 518, 519, 520, 521, 522, 523, 524, 525, 526, 527, 528, 529, 530, 531, 532, 533, 534, 535, 536, 537, 538, 539, 540, 541, 542, 543, 544, 545, 546, 547, 548, 549, 550, 551, 552, 553, 554, 555, 556, 557, 558, 559, 560, 561, 562, 563, 564, 565, 566, 567, 568, 569, 570, 571, 572, 573, 574, 575, 576, 577, 578, 579, 580, 581, 582, 583, 584, 585, 586, 587, 588, 589, 590, 591, 592, 593, 594, 595, 596, 597, 598, 599, 600, 601, 602, 603, 604, 605, 606, 607, 608, 609, 610, 611, 612, 613, 614, 615, 616, 617, 618],
      "AcquisitionTime": ["195529.417500", "195530.417500", "195531.417500", "195532.417500", "195533.417500", "195534.417500", "195535.417500", "195536.417500", "195537.417500", "195538.417500", "195539.417500", "195540.417500", "195541.417500", "195542.417500", "195543.417500", "195544.417500", "195545.417500", "195546.417500", "195547.417500", "195548.417500", "195549.417500", "195550.417500", "195551.417500", "195552.417500", "195553.417500", "195554.417500", "195555.417500", "195556.417500", "195557.417500", "195558.417500", "195559.417500", "195600.417500", "195601.417500", "195602.417500", "195603.417500", "195604.417500", "195605.417500", "195606.417500", "195607.417500", "195608.417500", "195609.417500", "195610.417500", "195611.417500", "195612.417500", "195613.417500", "195614.417500", "195615.417500", "195616.417500", "195617.417500", "195618.417500", "195619.417500", "195620.417500", "195621.417500", "195622.417500", "195623.417500", "195624.417500", "195625.417500", "195626.417500", "195627.417500", "195628.417500", "195629.417500", "195630.417500", "195631.417500", "195632.417500", "195633.417500", "195634.417500", "195635.417500", "195636.417500", "195637.417500", "195638.417500", "195639.417500", "195640.417500", "195641.417500", "195642.417500", "195643.417500", "195644.417500", "195645.417500", "195646.417500", "195647.417500", "195648.417500", "195649.417500", "195650.417500", "195651.417500", "195652.417500", "195653.417500", "195654.417500", "195655.417500", "195656.417500", "195657.417500", "195658.417500", "195659.417500", "195700.417500", "195701.417500", "195702.417500", "195703.417500", "195704.417500", "195705.417500", "195706.417500", "195707.417500", "195708.417500", "195709.417500", "195710.417500", "195711.417500", "195712.417500", "195713.417500", "195714.417500", "195715.417500", "195716.417500", "195717.417500", "195718.417500", "195719.417500", "195720.417500", "195721.417500", "195722.417500", "195723.417500", "195724.417500", "195725.417500", "195726.417500", "195727.417500", "195728.417500", "195729.417500", "195730.417500", "195731.417500", "195732.417500", "195733.417500", "195734.417500", "195735.417500", "195736.417500", "195737.417500", "195738.417500", "195739.417500", "195740.417500", "195741.417500", "195742.417500", "195743.417500", "195744.417500", "195745.417500", "195746.417500", "195747.417500", "195748.417500", "195749.417500", "195750.417500", "195751.417500", "195752.417500", "195753.417500", "195754.417500", "195755.417500", "195756.417500", "195757.417500", "195758.417500", "195759.417500", "195800.417500", "195801.417500", "195802.417500", "195803.417500", "195804.417500", "195805.417500", "195806.417500", "195807.417500", "195808.417500", "195809.417500", "195810.417500", "195811.417500", "195812.417500", "195813.417500", "195814.417500", "195815.417500", "195816.417500", "195817.417500", "195818.417500", "195819.417500", "195820.417500", "195821.417500", "195822.417500", "195823.417500", "195824.417500", "195825.417500", "195826.417500", "195827.417500", "195828.417500", "195829.417500", "195830.417500", "195831.417500", "195832.417500", "195833.417500", "195834.417500", "195835.417500", "195836.417500", "195837.417500", "195838.417500", "195839.417500", "195840.417500", "195841.417500", "195842.417500", "195843.417500", "195844.417500", "195845.417500", "195846.417500", "195847.417500", "195848.417500", "195849.417500", "195850.417500", "195851.417500", "195852.417500", "195853.417500", "195854.417500", "195855.417500", "195856.417500", "195857.417500", "195858.417500", "195859.417500", "195900.417500", "195901.417500", "195902.417500", "195903.417500", "195904.417500", "195905.417500", "195906.417500", "195907.417500", "195908.417500", "195909.417500", "195910.417500", "195911.417500", "195912.417500", "195913.417500", "195914.417500", "195915.417500", "195916.417500", "195917.417500", "195918.417500", "195919.417500", "195920.417500", "195921.417500", "195922.417500", "195923.417500", "195924.417500", "195925.417500", "195926.417500", "195927.417500", "195928.417500", "195929.417500", "195930.417500", "195931.417500", "195932.417500", "195933.417500", "195934.417500", "195935.417500", "195936.417500", "195937.417500", "195938.417500", "195939.417500", "195940.417500", "195941.417500", "195942.417500", "195943.417500", "195944.417500", "195945.417500", "195946.417500", "195947.417500", "195948.417500", "195949.417500", "195950.417500", "195951.417500", "195952.417500", "195953.417500", "195954.417500", "195955.417500", "195956.417500", "195957.417500", "195958.417500", "195959.417500", "200000.417500", "200001.417500", "200002.417500", "200003.417500", "200004.417500", "200005.417500", "200006.417500", "200007.417500", "200008.417500", "200009.417500", "200010.417500", "200011.417500", "200012.417500", "200013.417500", "200014.417500", "200015.417500", "200016.417500", "200017.417500", "200018.417500", "200019.417500", "200020.417500", "200021.417500", "200022.417500", "200023.417500", "200024.417500", "200025.417500", "200026.417500", "200027.417500", "200028.417500", "200029.417500", "200030.417500", "200031.417500", "200032.417500", "200033.417500", "200034.417500", "200035.417500", "200036.417500", "200037.417500", "200038.417500", "200039.417500", "200040.417500", "200041.417500", "200042.417500", "200043.417500", "200044.417500", "200045.417500", "200046.417500", "200047.417500", "200048.417500", "200049.417500", "200050.417500", "200051.417500", "200052.417500", "200053.417500", "200054.417500", "200055.417500", "200056.417500", "200057.417500", "200058.417500", "200059.417500", "200100.417500", "200101.417500", "200102.417500", "200103.417500", "200104.417500", "200105.417500", "200106.417500", "200107.417500", "200108.417500", "200109.417500", "200110.417500", "200111.417500", "200112.417500", "200113.417500", "200114.417500", "200115.417500", "200116.417500", "200117.417500", "200118.417500", "200119.417500", "200120.417500", "200121.417500", "200122.417500", "200123.417500", "200124.417500", "200125.417500", "200126.417500", "200127.417500", "200128.417500", "200129.417500", "200130.417500", "200131.417500", "200132.417500", "200133.417500", "200134.417500", "200135.417500", "200136.417500", "200137.417500", "200138.417500", "200139.417500", "200140.417500", "200141.417500", "200142.417500", "200143.417500", "200144.417500", "200145.417500", "200146.417500", "200147.417500", "200148.417500", "200149.417500", "200150.417500", "200151.417500", "200152.417500", "200153.417500", "200154.417500", "200155.417500", "200156.417500", "200157.417500", "200158.417500", "200159.417500", "200200.417500", "200201.417500", "200202.417500", "200203.417500", "200204.417500", "200205.417500", "200206.417500", "200207.417500", "200208.417500", "200209.417500", "200210.417500", "200211.417500", "200212.417500", "200213.417500", "200214.417500", "200215.417500", "200216.417500", "200217.417500", "200218.417500", "200219.417500", "200220.417500", "200221.417500", "200222.417500", "200223.417500", "200224.417500", "200225.417500", "200226.417500", "200227.417500", "200228.417500", "200229.417500", "200230.417500", "200231.417500", "200232.417500", "200233.417500", "200234.417500", "200235.417500", "200236.417500", "200237.417500", "200238.417500", "200239.417500", "200240.417500", "200241.417500", "200242.417500", "200243.417500", "200244.417500", "200245.417500", "200246.417500", "200247.417500", "200248.417500", "200249.417500", "200250.417500", "200251.417500", "200252.417500", "200253.417500", "200254.417500", "200255.417500", "200256.417500", "200257.417500", "200258.417500", "200259.417500", "200300.417500", "200301.417500", "200302.417500", "200303.417500", "200304.417500", "200305.417500", "200306.417500", "200307.417500", "200308.417500", "200309.417500", "200310.417500", "200311.417500", "200312.417500", "200313.417500", "200314.417500", "200315.417500", "200316.417500", "200317.417500", "200318.417500", "200319.417500", "200320.417500", "200321.417500", "200322.417500", "200323.417500", "200324.417500", "200325.417500", "200326.417500", "200327.417500", "200328.417500", "200329.417500", "200330.417500", "200331.417500", "200332.417500", "200333.417500", "200334.417500", "200335.417500", "200336.417500", "200337.417500", "200338.417500", "200339.417500", "200340.417500", "200341.417500", "200342.417500", "200343.417500", "200344.417500", "200345.417500", "200346.417500", "200347.417500", "200348.417500", "200349.417500", "200350.417500", "200351.417500", "200352.417500", "200353.417500", "200354.417500", "200355.417500", "200356.417500", "200357.417500", "200358.417500", "200359.417500", "200400.417500", "200401.417500", "200402.417500", "200403.417500", "200404.417500", "200405.417500", "200406.417500", "200407.417500", "200408.417500", "200409.417500", "200410.417500", "200411.417500", "200412.417500", "200413.417500", "200414.417500", "200415.417500", "200416.417500", "200417.417500", "200418.417500", "200419.417500", "200420.417500", "200421.417500", "200422.417500", "200423.417500", "200424.417500", "200425.417500", "200426.417500", "200427.417500", "200428.417500", "200429.417500", "200430.417500", "200431.417500", "200432.417500", "200433.417500", "200434.417500", "200435.417500", "200436.417500", "200437.417500", "200438.417500", "200439.417500", "200440.417500", "200441.417500", "200442.417500", "200443.417500", "200444.417500", "200445.417500", "200446.417500", "200447.417500", "200448.417500", "200449.417500", "200450.417500", "200451.417500", "200452.417500", "200453.417500", "200454.417500", "200455.417500", "200456.417500", "200457.417500", "200458.417500", "200459.417500", "200500.417500", "200501.417500", "200502.417500", "200503.417500", "200504.417500", "200505.417500", "200506.417500", "200507.417500", "200508.417500", "200509.417500", "200510.417500", "200511.417500", "200512.417500", "200513.417500", "200514.417500", "200515.417500", "200516.417500", "200517.417500", "200518.417500", "200519.417500", "200520.417500", "200521.417500", "200522.417500", "200523.417500", "200524.417500", "200525.417500", "200526.417500", "200527.417500", "200528.417500", "200529.417500", "200530.417500", "200531.417500", "200532.417500", "200533.417500", "200534.417500", "200535.417500", "200536.417500", "200537.417500", "200538.417500", "200539.417500", "200540.417500", "200541.417500", "200542.417500", "200543.417500", "200544.417500", "200545.417500", "200546.417500"],
      "ContentTime": ["195530.247000", "195531.111000", "195532.144000", "195533.103000", "195534.143000", "195535.126000", "195536.154000", "195537.093000", "195538.097000", "195539.112000", "195540.104000", "195541.103000", "195542.123000", "195543.092000", "195544.112000", "195545.134000", "195546.110000", "195547.112000", "195548.088000", "195549.101000", "195550.102000", "195551.127000", "195552.096000", "195553.129000", "195554.113000", "195555.093000", "195556.098000", "195557.099000", "195558.096000", "195559.119000", "195600.111000", "195601.098000", "195602.097000", "195603.113000", "195604.105000", "195605.104000", "195606.110000", "195607.080000", "195608.091000", "195609.118000", "195610.093000", "195611.094000", "195612.128000", "195613.085000", "195614.101000", "195615.136000", "195616.118000", "195617.138000", "195618.147000", "195619.140000", "195620.103000", "195621.106000", "195622.120000", "195623.123000", "195624.130000", "195625.093000", "195626.093000", "195627.108000", "195628.088000", "195629.135000", "195630.089000", "195631.125000", "195632.132000", "195633.115000", "195634.091000", "195635.113000", "195636.117000", "195637.102000", "195638.088000", "195639.109000", "195640.093000", "195641.129000", "195642.104000", "195643.093000", "195644.098000", "195645.111000", "195646.113000", "195647.089000", "195648.103000", "195649.113000", "195650.111000", "195651.106000", "195652.100000", "195653.101000", "195654.095000", "195655.096000", "195656.091000", "195657.080000", "195658.104000", "195659.109000", "195700.087000", "195701.109000", "195702.097000", "195703.109000", "195704.095000", "195705.112000", "195706.108000", "195707.109000", "195708.081000", "195709.122000", "195710.094000", "195711.128000", "195712.102000", "195713.121000", "195714.110000", "195715.105000", "195716.107000", "195717.108000", "195718.123000", "195719.099000", "195720.093000", "195721.121000", "195722.119000", "195723.138000", "195724.079000", "195725.116000", "195726.114000", "195727.106000", "195728.125000", "195729.123000", "195730.128000", "195731.125000", "195732.144000", "195733.129000", "195734.094000", "195735.139000", "195736.092000", "195737.107000", "195738.097000", "195739.107000", "195740.109000", "195741.088000", "195742.133000", "195743.111000", "195744.112000", "195745.091000", "195746.106000", "195747.118000", "195748.108000", "195749.112000", "195750.145000", "195751.117000", "195752.088000", "195753.102000", "195754.105000", "195755.108000", "195756.094000", "195757.112000", "195758.132000", "195759.134000", "195800.105000", "195801.120000", "195802.178000", "195803.107000", "195804.100000", "195805.136000", "195806.111000", "195807.109000", "195808.097000", "195809.118000", "195810.110000", "195811.126000", "195812.101000", "195813.119000", "195814.110000", "195815.119000", "195816.111000", "195817.104000", "195818.111000", "195819.112000", "195820.117000", "195821.109000", "195822.082000", "195823.100000", "195824.111000", "195825.090000", "195826.106000", "195827.117000", "195828.115000", "195829.102000", "195830.144000", "195831.136000", "195832.083000", "195833.094000", "195834.106000", "195835.072000", "195836.119000", "195837.079000", "195838.119000", "195839.111000", "195840.116000", "195841.117000", "195842.133000", "195843.099000", "195844.103000", "195845.120000", "195846.117000", "195847.175000", "195848.113000", "195849.104000", "195850.113000", "195851.092000", "195852.112000", "195853.101000", "195854.092000", "195855.101000", "195856.090000", "195857.138000", "195858.128000", "195859.078000", "195900.106000", "195901.112000", "195902.109000", "195903.144000", "195904.106000", "195905.154000", "195906.099000", "195907.099000", "195908.106000", "195909.108000", "195910.172000", "195911.106000", "195912.121000", "195913.111000", "195914.097000", "195915.106000", "195916.110000", "195917.095000", "195918.095000", "195919.112000", "195920.109000", "195921.138000", "195922.099000", "195923.102000", "195924.120000", "195925.101000", "195926.110000", "195927.092000", "195928.093000", "195929.109000", "195930.088000", "195931.093000", "195932.133000", "195933.106000", "195934.116000", "195935.095000", "195936.110000", "195937.106000", "195938.084000", "195939.070000", "195940.087000", "195941.103000", "195942.093000", "195943.119000", "195944.081000", "195945.098000", "195946.113000", "195947.106000", "195948.133000", "195949.101000", "195950.126000", "195951.090000", "195952.111000", "195953.112000", "195954.126000", "195955.123000", "195956.109000", "195957.103000", "195958.116000", "195959.099000", "200000.116000", "200001.100000", "200002.090000", "200003.107000", "200004.126000", "200005.105000", "200006.098000", "200007.138000", "200008.113000", "200009.119000", "200010.102000", "200011.118000", "200012.133000", "200013.109000", "200014.066000", "200015.108000", "200016.102000", "200017.089000", "200018.103000", "200019.141000", "200020.086000", "200021.112000", "200022.101000", "200023.105000", "200024.108000", "200025.096000", "200026.104000", "200027.095000", "200028.091000", "200029.081000", "200030.094000", "200031.115000", "200032.126000", "200033.120000", "200034.104000", "200035.085000", "200036.107000", "200037.102000", "200038.108000", "200039.148000", "200040.103000", "200041.125000", "200042.134000", "200043.090000", "200044.106000", "200045.065000", "200046.106000", "200047.109000", "200048.103000", "200049.118000", "200050.106000", "200051.139000", "200052.127000", "200053.073000", "200054.085000", "200055.094000", "200056.115000", "200057.139000", "200058.116000", "200059.098000", "200100.095000", "200101.140000", "200102.108000", "200103.109000", "200104.103000", "200105.109000", "200106.088000", "200107.089000", "200108.088000", "200109.132000", "200110.108000", "200111.133000", "200112.081000", "200113.099000", "200114.114000", "200115.107000", "200116.106000", "200117.094000", "200118.098000", "200119.091000", "200120.107000", "200121.048000", "200122.100000", "200123.103000", "200124.136000", "200125.132000", "200126.094000", "200127.074000", "200128.114000", "200129.103000", "200130.115000", "200131.079000", "200132.098000", "200133.106000", "200134.104000", "200135.142000", "200136.103000", "200137.092000", "200138.121000", "200139.107000", "200140.096000", "200141.106000", "200142.137000", "200143.127000", "200144.104000", "200145.090000", "200146.165000", "200147.129000", "200148.123000", "200149.133000", "200150.094000", "200151.106000", "200152.119000", "200153.121000", "200154.090000", "200155.080000", "200156.126000", "200157.117000", "200158.108000", "200159.129000", "200200.095000", "200201.091000", "200202.144000", "200203.133000", "200204.104000", "200205.092000", "200206.108000", "200207.136000", "200208.121000", "200209.105000", "200210.096000", "200211.100000", "200212.098000", "200213.151000", "200214.104000", "200215.084000", "200216.095000", "200217.078000", "200218.081000", "200219.142000", "200220.090000", "200221.108000", "200222.090000", "200223.066000", "200224.129000", "200225.102000", "200226.157000", "200227.115000", "200228.125000", "200229.083000", "200230.162000", "200231.059000", "200232.117000", "200233.135000", "200234.108000", "200235.125000", "200236.097000", "200237.140000", "200238.096000", "200239.111000", "200240.106000", "200241.109000", "200242.067000", "200243.084000", "200244.087000", "200245.109000", "200246.080000", "200247.114000", "200248.129000", "200249.128000", "200250.109000", "200251.094000", "200252.084000", "200253.096000", "200254.102000", "200255.101000", "200256.099000", "200257.099000", "200258.124000", "200259.109000", "200300.108000", "200301.118000", "200302.144000", "200303.088000", "200304.079000", "200305.101000", "200306.094000", "200307.094000", "200308.118000", "200309.089000", "200310.110000", "200311.138000", "200312.139000", "200313.103000", "200314.134000", "200315.111000", "200316.122000", "200317.125000", "200318.098000", "200319.106000", "200320.080000", "200321.095000", "200322.113000", "200323.085000", "200324.112000", "200325.108000", "200326.109000", "200327.106000", "200328.097000", "200329.114000", "200330.112000", "200331.096000", "200332.126000", "200333.096000", "200334.136000", "200335.094000", "200336.101000", "200337.121000", "200338.104000", "200339.083000", "200340.097000", "200341.100000", "200342.097000", "200343.087000", "200344.094000", "200345.065000", "200346.102000", "200347.108000", "200348.067000", "200349.081000", "200350.126000", "200351.176000", "200352.131000", "200353.115000", "200354.103000", "200355.108000", "200356.106000", "200357.085000", "200358.115000", "200359.094000", "200400.098000", "200401.131000", "200402.108000", "200403.124000", "200404.087000", "200405.094000", "200406.107000", "200407.092000", "200408.130000", "200409.100000", "200410.086000", "200411.091000", "200412.096000", "200413.105000", "200414.106000", "200415.108000", "200416.082000", "200417.095000", "200418.097000", "200419.102000", "200420.116000", "200421.100000", "200422.086000", "200423.088000", "200424.108000", "200425.127000", "200426.117000", "200427.108000", "200428.089000", "200429.092000", "200430.111000", "200431.087000", "200432.109000", "200433.103000", "200434.103000", "200435.093000", "200436.086000", "200437.099000", "200438.089000", "200439.145000", "200440.120000", "200441.092000", "200442.093000", "200443.104000", "200444.089000", "200445.066000", "200446.137000", "200447.100000", "200448.148000", "200449.119000", "200450.088000", "200451.099000", "200452.092000", "200453.104000", "200454.091000", "200455.132000", "200456.088000", "200457.107000", "200458.087000", "200459.099000", "200500.078000", "200501.102000", "200502.113000", "200503.091000", "200504.077000", "200505.087000", "200506.109000", "200507.099000", "200508.113000", "200509.091000", "200510.094000", "200511.070000", "200512.084000", "200513.165000", "200514.084000", "200515.097000", "200516.110000", "200517.110000", "200518.097000", "200519.093000", "200520.099000", "200521.109000", "200522.096000", "200523.137000", "200524.101000", "200525.111000", "200526.059000", "200527.107000", "200528.102000", "200529.102000", "200530.093000", "200531.108000", "200532.098000", "200533.100000", "200534.115000", "200535.109000", "200536.112000", "200537.099000", "200538.100000", "200539.103000", "200540.110000", "200541.104000", "200542.115000", "200543.100000", "200544.107000", "200545.102000", "200546.115000", "200547.160000"],
