{
  "AcquisitionMatrixPE": 96,
  "AcquisitionNumber": 1,
  "AcquisitionTime": "20:06:42.885000",
  "BandwidthPerPixelPhaseEncode": 18.939,
  "BaseResolution": 96,
  "BodyPartExamined": "BRAIN",
  "ConsistencyInfo": "N4_VE11C_LATEST_20160120",
  "ConversionSoftware": "dcm2niix",
  "ConversionSoftwareVersion": "v1.0.20190902",
  "DerivedVendorReportedEchoSpacing": 0.000550011,
  "DeviceSerialNumber": "66112",
  "DwellTime": 2.2e-06,
  "EchoTime": 0.033,
  "EchoTrainLength": 96,
  "EffectiveEchoSpacing": 0.000550011,
  "FlipAngle": 59,
  "ImageOrientationPatientDICOM": [0.999389, 0.0348209, 0.00316865, -0.0347248, 0.999045, -0.0265284],
  "ImageType": [
    "ORIGINAL",
    "PRIMARY",
    "FMRI",
    "NONE",
    "ND",
    "NORM",
    "MOSAIC"
],
  "ImagingFrequency": 123.252,
  "InPlanePhaseEncodingDirectionDICOM": "COL",
  "InstitutionAddress": "Maynard_3_Hanover_NH_US_03755",
  "InstitutionName": "Dartmouth_College_-_PBS",
  "InstitutionalDepartmentName": "Department",
  "MRAcquisitionType": "2D",
  "MagneticFieldStrength": 3,
  "Manufacturer": "Siemens",
  "ManufacturersModelName": "Prisma",
  "Modality": "MR",
  "MultibandAccelerationFactor": 4,
  "PartialFourier": 1,
  "PatientPosition": "HFS",
  "PercentPhaseFOV": 100,
  "PhaseEncodingDirection": "j-",
  "PhaseEncodingSteps": 96,
  "PhaseResolution": 1,
  "PixelBandwidth": 2365,
  "ProcedureStepDescription": "Gobbini_Matteo_1037_budapest",
  "ProtocolName": "func_run-05_task-movie",
  "PulseSequenceDetails": "%SiemensSeq%_ep2d_bold",
  "ReceiveCoilActiveElements": "HEA;HEP",
  "ReceiveCoilName": "Head_32",
  "ReconMatrixPE": 96,
  "RefLinesPE": 12,
  "RepetitionTime": 1,
  "SAR": 0.0624809,
  "ScanOptions": "FS",
  "ScanningSequence": "EP",
  "SequenceName": "_epfid2d1_96",
  "SequenceVariant": "SK",
  "SeriesDescription": "func_run-05_task-movie",
  "SeriesNumber": 36,
  "ShimSetting": [4141, -7719, -7232, 517, -69, -284, -7, 138],
  "SliceThickness": 2.5,
  "SliceTiming": [0.735, 0, 0.49, 0.08, 0.57, 0.1625, 0.6525, 0.325, 0.815, 0.4075, 0.8975, 0.245, 0.735, 0, 0.49, 0.08, 0.57, 0.1625, 0.6525, 0.325, 0.815, 0.4075, 0.8975, 0.245, 0.735, 0, 0.49, 0.08, 0.57, 0.1625, 0.6525, 0.325, 0.815, 0.4075, 0.8975, 0.245, 0.735, 0, 0.49, 0.08, 0.57, 0.1625, 0.6525, 0.325, 0.815, 0.4075, 0.8975, 0.245],
  "SoftwareVersions": "syngo_MR_E11",
  "SpacingBetweenSlices": 2.5,
  "StationName": "AWP66112",
  "TaskName": "movie",
  "TotalReadoutTime": 0.0522511,
  "TxRefAmp": 282.943,
  "dcmmeta_affine": [
    [-2.498471260070801, -0.08681192994117737, 0.01022340264171362, 130.76321411132812],
    [-0.08705215156078339, 2.4976119995117188, -0.06600525230169296, -102.7792739868164],
    [0.007921620272099972, 0.06632088124752045, 2.499107599258423, -78.4034194946289],
    [0.0, 0.0, 0.0, 1.0]
],
  "dcmmeta_reorient_transform": [
    [0.0, -1.0, 0.0, 95.0],
    [1.0, 0.0, 0.0, 0.0],
    [0.0, 0.0, 1.0, 0.0],
    [0.0, 0.0, 0.0, 1.0]
],
  "dcmmeta_shape": [96, 96, 48, 803],
  "dcmmeta_slice_dim": 2,
  "dcmmeta_version": 0.6,
  "global": {
    "const": {
      "AccessionNumber": "A001111",
      "AcquisitionMatrix": [96, 0, 0, 96],
      "AngioFlag": "N",
      "BitsAllocated": 16,
      "BitsStored": 12,
      "BodyPartExamined": "BRAIN",
      "Columns": 672,
      "EchoNumbers": 1,
      "EchoTime": 33.0,
      "EchoTrainLength": 96,
      "FlipAngle": 59.0,
      "HighBit": 11,
      "ImageOrientationPatient": [0.9993885467446, 0.03482086021312, 0.00316864793407, -0.034724771572, 0.9990447621217, -0.0265283530673],
      "ImagePositionPatient": [-817.07400367827, -878.87710208559, -55.283945100177],
      "ImageType": [
        "ORIGINAL",
        "PRIMARY",
        "FMRI",
        "NONE",
        "ND",
        "NORM",
        "MOSAIC"
],
      "ImagedNucleus": "1H",
      "ImagingFrequency": 123.252284,
      "InPlanePhaseEncodingDirection": "COL",
      "MRAcquisitionType": "2D",
      "MagneticFieldStrength": 3.0,
      "Manufacturer": "SIEMENS",
      "ManufacturerModelName": "Prisma",
      "Modality": "MR",
      "NumberOfAverages": 1.0,
      "NumberOfPhaseEncodingSteps": 96,
      "PercentPhaseFieldOfView": 100.0,
      "PercentSampling": 100.0,
      "PerformedProcedureStepStartTime": "190945.721000",
      "PhotometricInterpretation": "MONOCHROME2",
      "PixelBandwidth": 2365.0,
      "PixelRepresentation": 0,
      "PixelSpacing": [2.5, 2.5],
      "ProtocolName": "func_run-05_task-movie",
      "RepetitionTime": 1000.0,
      "Rows": 672,
      "SAR": 0.06248094803598,
      "SamplesPerPixel": 1,
      "ScanOptions": "FS",
      "ScanningSequence": "EP",
      "SequenceName": "*epfid2d1_96",
      "SequenceVariant": "SK",
      "SeriesDescription": "func_run-05_task-movie",
      "SeriesNumber": 36,
      "SeriesTime": "200643.973000",
      "SliceLocation": -75.127102765364,
      "SliceThickness": 2.5,
      "SmallestImagePixelValue": 0,
      "SoftwareVersions": "syngo MR E11",
      "SpacingBetweenSlices": 2.4999999246589,
      "SpecificCharacterSet": "ISO_IR 100",
      "StudyID": "1",
      "StudyTime": "190945.661000",
      "TransmitCoilName": "Body",
      "VariableFlipAngleFlag": "N",
      "WindowCenterWidthExplanation": "Algo1",
      "dBdt": 0.0},
    "slices": {}
  },
  "time": {
    "samples": {
      "AcquisitionNumber": [1, 2, 3, 4, 5, 6, 7, 8, 9, 10, 11, 12, 13, 14, 15, 16, 17, 18, 19, 20, 21, 22, 23, 24, 25, 26, 27, 28, 29, 30, 31, 32, 33, 34, 35, 36, 37, 38, 39, 40, 41, 42, 43, 44, 45, 46, 47, 48, 49, 50, 51, 52, 53, 54, 55, 56, 57, 58, 59, 60, 61, 62, 63, 64, 65, 66, 67, 68, 69, 70, 71, 72, 73, 74, 75, 76, 77, 78, 79, 80, 81, 82, 83, 84, 85, 86, 87, 88, 89, 90, 91, 92, 93, 94, 95, 96, 97, 98, 99, 100, 101, 102, 103, 104, 105, 106, 107, 108, 109, 110, 111, 112, 113, 114, 115, 116, 117, 118, 119, 120, 121, 122, 123, 124, 125, 126, 127, 128, 129, 130, 131, 132, 133, 134, 135, 136, 137, 138, 139, 140, 141, 142, 143, 144, 145, 146, 147, 148, 149, 150, 151, 152, 153, 154, 155, 156, 157, 158, 159, 160, 161, 162, 163, 164, 165, 166, 167, 168, 169, 170, 171, 172, 173, 174, 175, 176, 177, 178, 179, 180, 181, 182, 183, 184, 185, 186, 187, 188, 189, 190, 191, 192, 193, 194, 195, 196, 197, 198, 199, 200, 201, 202, 203, 204, 205, 206, 207, 208, 209, 210, 211, 212, 213, 214, 215, 216, 217, 218, 219, 220, 221, 222, 223, 224, 225, 226, 227, 228, 229, 230, 231, 232, 233, 234, 235, 236, 237, 238, 239, 240, 241, 242, 243, 244, 245, 246, 247, 248, 249, 250, 251, 252, 253, 254, 255, 256, 257, 258, 259, 260, 261, 262, 263, 264, 265, 266, 267, 268, 269, 270, 271, 272, 273, 274, 275, 276, 277, 278, 279, 280, 281, 282, 283, 284, 285, 286, 287, 288, 289, 290, 291, 292, 293, 294, 295, 296, 297, 298, 299, 300, 301, 302, 303, 304, 305, 306, 307, 308, 309, 310, 311, 312, 313, 314, 315, 316, 317, 318, 319, 320, 321, 322, 323, 324, 325, 326, 327, 328, 329, 330, 331, 332, 333, 334, 335, 336, 337, 338, 339, 340, 341, 342, 343, 344, 345, 346, 347, 348, 349, 350, 351, 352, 353, 354, 355, 356, 357, 358, 359, 360, 361, 362, 363, 364, 365, 366, 367, 368, 369, 370, 371, 372, 373, 374, 375, 376, 377, 378, 379, 380, 381, 382, 383, 384, 385, 386, 387, 388, 389, 390, 391, 392, 393, 394, 395, 396, 397, 398, 399, 400, 401, 402, 403, 404, 405, 406, 407, 408, 409, 410, 411, 412, 413, 414, 415, 416, 417, 418, 419, 420, 421, 422, 423, 424, 425, 426, 427, 428, 429, 430, 431, 432, 433, 434, 435, 436, 437, 438, 439, 440, 441, 442, 443, 444, 445, 446, 447, 448, 449, 450, 451, 452, 453, 454, 455, 456, 457, 458, 459, 460, 461, 462, 463, 464, 465, 466, 467, 468, 469, 470, 471, 472, 473, 474, 475, 476, 477, 478, 479, 480, 481, 482, 483, 484, 485, 486, 487, 488, 489, 490, 491, 492, 493, 494, 495, 496, 497, 498, 499, 500, 501, 502, 503, 504, 505, 506, 507, 508, 509, 510, 511, 512, 513, 514, 515, 516, 517, 518, 519, 520, 521, 522, 523, 524, 525, 526, 527, 528, 529, 530, 531, 532, 533, 534, 535, 536, 537, 538, 539, 540, 541, 542, 543, 544, 545, 546, 547, 548, 549, 550, 551, 552, 553, 554, 555, 556, 557, 558, 559, 560, 561, 562, 563, 564, 565, 566, 567, 568, 569, 570, 571, 572, 573, 574, 575, 576, 577, 578, 579, 580, 581, 582, 583, 584, 585, 586, 587, 588, 589, 590, 591, 592, 593, 594, 595, 596, 597, 598, 599, 600, 601, 602, 603, 604, 605, 606, 607, 608, 609, 610, 611, 612, 613, 614, 615, 616, 617, 618, 619, 620, 621, 622, 623, 624, 625, 626, 627, 628, 629, 630, 631, 632, 633, 634, 635, 636, 637, 638, 639, 640, 641, 642, 643, 644, 645, 646, 647, 648, 649, 650, 651, 652, 653, 654, 655, 656, 657, 658, 659, 660, 661, 662, 663, 664, 665, 666, 667, 668, 669, 670, 671, 672, 673, 674, 675, 676, 677, 678, 679, 680, 681, 682, 683, 684, 685, 686, 687, 688, 689, 690, 691, 692, 693, 694, 695, 696, 697, 698, 699, 700, 701, 702, 703, 704, 705, 706, 707, 708, 709, 710, 711, 712, 713, 714, 715, 716, 717, 718, 719, 720, 721, 722, 723, 724, 725, 726, 727, 728, 729, 730, 731, 732, 733, 734, 735, 736, 737, 738, 739, 740, 741, 742, 743, 744, 745, 746, 747, 748, 749, 750, 751, 752, 753, 754, 755, 756, 757, 758, 759, 760, 761, 762, 763, 764, 765, 766, 767, 768, 769, 770, 771, 772, 773, 774, 775, 776, 777, 778, 779, 780, 781, 782, 783, 784, 785, 786, 787, 788, 789, 790, 791, 792, 793, 794, 795, 796, 797, 798, 799, 800, 801, 802, 803],
      "AcquisitionTime": ["200642.885000", "200643.885000", "200644.885000", "200645.885000", "200646.885000", "200647.885000", "200648.885000", "200649.885000", "200650.885000", "200651.885000", "200652.885000", "200653.885000", "200654.885000", "200655.885000", "200656.885000", "200657.885000", "200658.885000", "200659.885000", "200700.885000", "200701.885000", "200702.885000", "200703.885000", "200704.885000", "200705.885000", "200706.885000", "200707.885000", "200708.885000", "200709.885000", "200710.885000", "200711.885000", "200712.885000", "200713.885000", "200714.885000", "200715.885000", "200716.885000", "200717.885000", "200718.885000", "200719.885000", "200720.885000", "200721.885000", "200722.885000", "200723.885000", "200724.885000", "200725.885000", "200726.885000", "200727.885000", "200728.885000", "200729.885000", "200730.885000", "200731.885000", "200732.885000", "200733.885000", "200734.885000", "200735.885000", "200736.885000", "200737.885000", "200738.885000", "200739.885000", "200740.885000", "200741.885000", "200742.885000", "200743.885000", "200744.885000", "200745.885000", "200746.885000", "200747.885000", "200748.885000", "200749.885000", "200750.885000", "200751.885000", "200752.885000", "200753.885000", "200754.885000", "200755.885000", "200756.885000", "200757.885000", "200758.885000", "200759.885000", "200800.885000", "200801.885000", "200802.885000", "200803.885000", "200804.885000", "200805.885000", "200806.885000", "200807.885000", "200808.885000", "200809.885000", "200810.885000", "200811.885000", "200812.885000", "200813.885000", "200814.885000", "200815.885000", "200816.885000", "200817.885000", "200818.885000", "200819.885000", "200820.885000", "200821.885000", "200822.885000", "200823.885000", "200824.885000", "200825.885000", "200826.885000", "200827.885000", "200828.885000", "200829.885000", "200830.885000", "200831.885000", "200832.885000", "200833.885000", "200834.885000", "200835.885000", "200836.885000", "200837.885000", "200838.885000", "200839.885000", "200840.885000", "200841.885000", "200842.885000", "200843.885000", "200844.885000", "200845.885000", "200846.885000", "200847.885000", "200848.885000", "200849.885000", "200850.885000", "200851.885000", "200852.885000", "200853.885000", "200854.885000", "200855.885000", "200856.885000", "200857.885000", "200858.885000", "200859.885000", "200900.885000", "200901.885000", "200902.885000", "200903.885000", "200904.885000", "200905.885000", "200906.885000", "200907.885000", "200908.885000", "200909.885000", "200910.885000", "200911.885000", "200912.885000", "200913.885000", "200914.885000", "200915.885000", "200916.885000", "200917.885000", "200918.885000", "200919.885000", "200920.885000", "200921.885000", "200922.885000", "200923.885000", "200924.885000", "200925.885000", "200926.885000", "200927.885000", "200928.885000", "200929.885000", "200930.885000", "200931.885000", "200932.885000", "200933.885000", "200934.885000", "200935.885000", "200936.885000", "200937.885000", "200938.885000", "200939.885000", "200940.885000", "200941.885000", "200942.885000", "200943.885000", "200944.885000", "200945.885000", "200946.885000", "200947.885000", "200948.885000", "200949.885000", "200950.885000", "200951.885000", "200952.885000", "200953.885000", "200954.885000", "200955.885000", "200956.885000", "200957.885000", "200958.885000", "200959.885000", "201000.885000", "201001.885000", "201002.885000", "201003.885000", "201004.885000", "201005.885000", "201006.885000", "201007.885000", "201008.885000", "201009.885000", "201010.885000", "201011.885000", "201012.885000", "201013.885000", "201014.885000", "201015.885000", "201016.885000", "201017.885000", "201018.885000", "201019.885000", "201020.885000", "201021.885000", "201022.885000", "201023.885000", "201024.885000", "201025.885000", "201026.885000", "201027.885000", "201028.885000", "201029.885000", "201030.885000", "201031.885000", "201032.885000", "201033.885000", "201034.885000", "201035.885000", "201036.885000", "201037.885000", "201038.885000", "201039.885000", "201040.885000", "201041.885000", "201042.885000", "201043.885000", "201044.885000", "201045.885000", "201046.885000", "201047.885000", "201048.885000", "201049.885000", "201050.885000", "201051.885000", "201052.885000", "201053.885000", "201054.885000", "201055.885000", "201056.885000", "201057.885000", "201058.885000", "201059.885000", "201100.885000", "201101.885000", "201102.885000", "201103.885000", "201104.885000", "201105.885000", "201106.885000", "201107.885000", "201108.885000", "201109.885000", "201110.885000", "201111.885000", "201112.885000", "201113.885000", "201114.885000", "201115.885000", "201116.885000", "201117.885000", "201118.885000", "201119.885000", "201120.885000", "201121.885000", "201122.885000", "201123.885000", "201124.885000", "201125.885000", "201126.885000", "201127.885000", "201128.885000", "201129.885000", "201130.885000", "201131.885000", "201132.885000", "201133.885000", "201134.885000", "201135.885000", "201136.885000", "201137.885000", "201138.885000", "201139.885000", "201140.885000", "201141.885000", "201142.885000", "201143.885000", "201144.885000", "201145.885000", "201146.885000", "201147.885000", "201148.885000", "201149.885000", "201150.885000", "201151.885000", "201152.885000", "201153.885000", "201154.885000", "201155.885000", "201156.885000", "201157.885000", "201158.885000", "201159.885000", "201200.885000", "201201.885000", "201202.885000", "201203.885000", "201204.885000", "201205.885000", "201206.885000", "201207.885000", "201208.885000", "201209.885000", "201210.885000", "201211.885000", "201212.885000", "201213.885000", "201214.885000", "201215.885000", "201216.885000", "201217.885000", "201218.885000", "201219.885000", "201220.885000", "201221.885000", "201222.885000", "201223.885000", "201224.885000", "201225.885000", "201226.885000", "201227.885000", "201228.885000", "201229.885000", "201230.885000", "201231.885000", "201232.885000", "201233.885000", "201234.885000", "201235.885000", "201236.885000", "201237.885000", "201238.885000", "201239.885000", "201240.885000", "201241.885000", "201242.885000", "201243.885000", "201244.885000", "201245.885000", "201246.885000", "201247.885000", "201248.885000", "201249.885000", "201250.885000", "201251.885000", "201252.885000", "201253.885000", "201254.885000", "201255.885000", "201256.885000", "201257.885000", "201258.885000", "201259.885000", "201300.885000", "201301.885000", "201302.885000", "201303.885000", "201304.885000", "201305.885000", "201306.885000", "201307.885000", "201308.885000", "201309.885000", "201310.885000", "201311.885000", "201312.885000", "201313.885000", "201314.885000", "201315.885000", "201316.885000", "201317.885000", "201318.885000", "201319.885000", "201320.885000", "201321.885000", "201322.885000", "201323.885000", "201324.885000", "201325.885000", "201326.885000", "201327.885000", "201328.885000", "201329.885000", "201330.885000", "201331.885000", "201332.885000", "201333.885000", "201334.885000", "201335.885000", "201336.885000", "201337.885000", "201338.885000", "201339.885000", "201340.885000", "201341.885000", "201342.885000", "201343.885000", "201344.885000", "201345.885000", "201346.885000", "201347.885000", "201348.885000", "201349.885000", "201350.885000", "201351.885000", "201352.885000", "201353.885000", "201354.885000", "201355.885000", "201356.885000", "201357.885000", "201358.885000", "201359.885000", "201400.885000", "201401.885000", "201402.885000", "201403.885000", "201404.885000", "201405.885000", "201406.885000", "201407.885000", "201408.885000", "201409.885000", "201410.885000", "201411.885000", "201412.885000", "201413.885000", "201414.885000", "201415.885000", "201416.885000", "201417.885000", "201418.885000", "201419.885000", "201420.885000", "201421.885000", "201422.885000", "201423.885000", "201424.885000", "201425.885000", "201426.885000", "201427.885000", "201428.885000", "201429.885000", "201430.885000", "201431.885000", "201432.885000", "201433.885000", "201434.885000", "201435.885000", "201436.885000", "201437.885000", "201438.885000", "201439.885000", "201440.885000", "201441.885000", "201442.885000", "201443.885000", "201444.885000", "201445.885000", "201446.885000", "201447.885000", "201448.885000", "201449.885000", "201450.885000", "201451.885000", "201452.885000", "201453.885000", "201454.885000", "201455.885000", "201456.885000", "201457.885000", "201458.885000", "201459.885000", "201500.885000", "201501.885000", "201502.885000", "201503.885000", "201504.885000", "201505.885000", "201506.885000", "201507.885000", "201508.885000", "201509.885000", "201510.885000", "201511.885000", "201512.885000", "201513.885000", "201514.885000", "201515.885000", "201516.885000", "201517.885000", "201518.885000", "201519.885000", "201520.885000", "201521.885000", "201522.885000", "201523.885000", "201524.885000", "201525.885000", "201526.885000", "201527.885000", "201528.885000", "201529.885000", "201530.885000", "201531.885000", "201532.885000", "201533.885000", "201534.885000", "201535.885000", "201536.885000", "201537.885000", "201538.885000", "201539.885000", "201540.885000", "201541.885000", "201542.885000", "201543.885000", "201544.885000", "201545.885000", "201546.885000", "201547.885000", "201548.885000", "201549.885000", "201550.885000", "201551.885000", "201552.885000", "201553.885000", "201554.885000", "201555.885000", "201556.885000", "201557.885000", "201558.885000", "201559.885000", "201600.885000", "201601.885000", "201602.885000", "201603.885000", "201604.885000", "201605.885000", "201606.885000", "201607.885000", "201608.885000", "201609.885000", "201610.885000", "201611.885000", "201612.885000", "201613.885000", "201614.885000", "201615.885000", "201616.885000", "201617.885000", "201618.885000", "201619.885000", "201620.885000", "201621.885000", "201622.885000", "201623.885000", "201624.885000", "201625.885000", "201626.885000", "201627.885000", "201628.885000", "201629.885000", "201630.885000", "201631.885000", "201632.885000", "201633.885000", "201634.885000", "201635.885000", "201636.885000", "201637.885000", "201638.885000", "201639.885000", "201640.885000", "201641.885000", "201642.885000", "201643.885000", "201644.885000", "201645.885000", "201646.885000", "201647.885000", "201648.885000", "201649.885000", "201650.885000", "201651.885000", "201652.885000", "201653.885000", "201654.885000", "201655.885000", "201656.885000", "201657.885000", "201658.885000", "201659.885000", "201700.885000", "201701.885000", "201702.885000", "201703.885000", "201704.885000", "201705.885000", "201706.885000", "201707.885000", "201708.885000", "201709.885000", "201710.885000", "201711.885000", "201712.885000", "201713.885000", "201714.885000", "201715.885000", "201716.885000", "201717.885000", "201718.885000", "201719.885000", "201720.885000", "201721.885000", "201722.885000", "201723.885000", "201724.885000", "201725.885000", "201726.885000", "201727.885000", "201728.885000", "201729.885000", "201730.885000", "201731.885000", "201732.885000", "201733.885000", "201734.885000", "201735.885000", "201736.885000", "201737.885000", "201738.885000", "201739.885000", "201740.885000", "201741.885000", "201742.885000", "201743.885000", "201744.885000", "201745.885000", "201746.885000", "201747.885000", "201748.885000", "201749.885000", "201750.885000", "201751.885000", "201752.885000", "201753.885000", "201754.885000", "201755.885000", "201756.885000", "201757.885000", "201758.885000", "201759.885000", "201800.885000", "201801.885000", "201802.885000", "201803.885000", "201804.885000", "201805.885000", "201806.885000", "201807.885000", "201808.885000", "201809.885000", "201810.885000", "201811.885000", "201812.885000", "201813.885000", "201814.885000", "201815.885000", "201816.885000", "201817.885000", "201818.885000", "201819.885000", "201820.885000", "201821.885000", "201822.885000", "201823.885000", "201824.885000", "201825.885000", "201826.885000", "201827.885000", "201828.885000", "201829.885000", "201830.885000", "201831.885000", "201832.885000", "201833.885000", "201834.885000", "201835.885000", "201836.885000", "201837.885000", "201838.885000", "201839.885000", "201840.885000", "201841.885000", "201842.885000", "201843.885000", "201844.885000", "201845.885000", "201846.885000", "201847.885000", "201848.885000", "201849.885000", "201850.885000", "201851.885000", "201852.885000", "201853.885000", "201854.885000", "201855.885000", "201856.885000", "201857.885000", "201858.885000", "201859.885000", "201900.885000", "201901.885000", "201902.885000", "201903.885000", "201904.885000", "201905.885000", "201906.885000", "201907.885000", "201908.885000", "201909.885000", "201910.885000", "201911.885000", "201912.885000", "201913.885000", "201914.885000", "201915.885000", "201916.885000", "201917.885000", "201918.885000", "201919.885000", "201920.885000", "201921.885000", "201922.885000", "201923.885000", "201924.885000", "201925.885000", "201926.885000", "201927.885000", "201928.885000", "201929.885000", "201930.885000", "201931.885000", "201932.885000", "201933.885000", "201934.885000", "201935.885000", "201936.885000", "201937.885000", "201938.885000", "201939.885000", "201940.885000", "201941.885000", "201942.885000", "201943.885000", "201944.885000", "201945.885000", "201946.885000", "201947.885000", "201948.885000", "201949.885000", "201950.885000", "201951.885000", "201952.885000", "201953.885000", "201954.885000", "201955.885000", "201956.885000", "201957.885000", "201958.885000", "201959.885000", "202000.885000", "202001.885000", "202002.885000", "202003.885000", "202004.885000"],
