{
  "AcquisitionMatrixPE": 96,
  "AcquisitionNumber": 1,
  "AcquisitionTime": "18:14:20.950000",
  "BandwidthPerPixelPhaseEncode": 18.939,
  "BaseResolution": 96,
  "BodyPartExamined": "BRAIN",
  "ConsistencyInfo": "N4_VE11C_LATEST_20160120",
  "ConversionSoftware": "dcm2niix",
  "ConversionSoftwareVersion": "v1.0.20190902",
  "DerivedVendorReportedEchoSpacing": 0.000550011,
  "DeviceSerialNumber": "66112",
  "DwellTime": 2.2e-06,
  "EchoTime": 0.033,
  "EchoTrainLength": 96,
  "EffectiveEchoSpacing": 0.000550011,
  "FlipAngle": 59,
  "ImageOrientationPatientDICOM": [0.999111, 0.0399387, 0.0135113, -0.0415258, 0.987604, 0.151377],
  "ImageType": [
    "ORIGINAL",
    "PRIMARY",
    "FMRI",
    "NONE",
    "ND",
    "NORM",
    "MOSAIC"
],
  "ImagingFrequency": 123.252,
  "InPlanePhaseEncodingDirectionDICOM": "COL",
  "InstitutionAddress": "Maynard_3_Hanover_NH_US_03755",
  "InstitutionName": "Dartmouth_College_-_PBS",
  "InstitutionalDepartmentName": "Department",
  "MRAcquisitionType": "2D",
  "MagneticFieldStrength": 3,
  "Manufacturer": "Siemens",
  "ManufacturersModelName": "Prisma",
  "Modality": "MR",
  "MultibandAccelerationFactor": 4,
  "PartialFourier": 1,
  "PatientPosition": "HFS",
  "PercentPhaseFOV": 100,
  "PhaseEncodingDirection": "j-",
  "PhaseEncodingSteps": 96,
  "PhaseResolution": 1,
  "PixelBandwidth": 2365,
  "ProcedureStepDescription": "Gobbini_Matteo_1037_budapest",
  "ProtocolName": "func_run-03_task-movie",
  "PulseSequenceDetails": "%SiemensSeq%_ep2d_bold",
  "ReceiveCoilActiveElements": "HEA;HEP",
  "ReceiveCoilName": "Head_32",
  "ReconMatrixPE": 96,
  "RefLinesPE": 12,
  "RepetitionTime": 1,
  "SAR": 0.0527579,
  "ScanOptions": "FS",
  "ScanningSequence": "EP",
  "SequenceName": "_epfid2d1_96",
  "SequenceVariant": "SK",
  "SeriesDescription": "func_run-03_task-movie",
  "SeriesNumber": 22,
  "ShimSetting": [4132, -7721, -7294, 540, -4, -215, 22, 77],
  "SliceThickness": 2.5,
  "SliceTiming": [0.735, 0, 0.49, 0.0825, 0.5725, 0.165, 0.655, 0.3275, 0.8175, 0.41, 0.9, 0.245, 0.735, 0, 0.49, 0.0825, 0.5725, 0.165, 0.655, 0.3275, 0.8175, 0.41, 0.9, 0.245, 0.735, 0, 0.49, 0.0825, 0.5725, 0.165, 0.655, 0.3275, 0.8175, 0.41, 0.9, 0.245, 0.735, 0, 0.49, 0.0825, 0.5725, 0.165, 0.655, 0.3275, 0.8175, 0.41, 0.9, 0.245],
  "SoftwareVersions": "syngo_MR_E11",
  "SpacingBetweenSlices": 2.5,
  "StationName": "AWP66112",
  "TaskName": "movie",
  "TotalReadoutTime": 0.0522511,
  "TxRefAmp": 255.721,
  "dcmmeta_affine": [
    [-2.497776985168457, -0.10381443798542023, 0.018244992941617966, 127.28705596923828],
    [-0.09984663873910904, 2.4690089225769043, 0.37950775027275085, -107.25621795654297],
    [0.033778171986341476, -0.37844160199165344, 2.470959424972534, -51.45216751098633],
    [0.0, 0.0, 0.0, 1.0]
],
  "dcmmeta_reorient_transform": [
    [0.0, -1.0, 0.0, 95.0],
    [1.0, 0.0, 0.0, 0.0],
    [0.0, 0.0, 1.0, 0.0],
    [0.0, 0.0, 0.0, 1.0]
],
  "dcmmeta_shape": [96, 96, 48, 535],
  "dcmmeta_slice_dim": 2,
  "dcmmeta_version": 0.6,
  "global": {
    "const": {
      "AccessionNumber": "A001174",
      "AcquisitionMatrix": [96, 0, 0, 96],
      "AngioFlag": "N",
      "BitsAllocated": 16,
      "BitsStored": 12,
      "BodyPartExamined": "BRAIN",
      "Columns": 672,
      "EchoNumbers": 1,
      "EchoTime": 33.0,
      "EchoTrainLength": 96,
      "FlipAngle": 59.0,
      "HighBit": 11,
      "ImageOrientationPatient": [0.99911077931987, 0.03993865632632, 0.01351126854521, -0.0415257737724, 0.98760352557341, 0.15137663752239],
      "ImagePositionPatient": [-806.8858850123, -867.12999327589, -206.12341006651],
      "ImageType": [
        "ORIGINAL",
        "PRIMARY",
        "FMRI",
        "NONE",
        "ND",
        "NORM",
        "MOSAIC"
],
      "ImagedNucleus": "1H",
      "ImagingFrequency": 123.252298,
      "InPlanePhaseEncodingDirection": "COL",
      "MRAcquisitionType": "2D",
      "MagneticFieldStrength": 3.0,
      "Manufacturer": "SIEMENS",
      "ManufacturerModelName": "Prisma",
      "Modality": "MR",
      "NumberOfAverages": 1.0,
      "NumberOfPhaseEncodingSteps": 96,
      "PercentPhaseFieldOfView": 100.0,
      "PercentSampling": 100.0,
      "PerformedProcedureStepStartTime": "174426.543000",
      "PhotometricInterpretation": "MONOCHROME2",
      "PixelBandwidth": 2365.0,
      "PixelRepresentation": 0,
      "PixelSpacing": [2.5, 2.5],
      "ProtocolName": "func_run-03_task-movie",
      "RepetitionTime": 1000.0,
      "Rows": 672,
      "SAR": 0.0527579265321,
      "SamplesPerPixel": 1,
      "ScanOptions": "FS",
      "ScanningSequence": "EP",
      "SequenceName": "*epfid2d1_96",
      "SequenceVariant": "SK",
      "SeriesDescription": "func_run-03_task-movie",
      "SeriesNumber": 22,
      "SeriesTime": "181421.917000",
      "SliceLocation": -66.20737323768,
      "SliceThickness": 2.5,
      "SmallestImagePixelValue": 0,
      "SoftwareVersions": "syngo MR E11",
      "SpacingBetweenSlices": 2.4999999935506,
      "SpecificCharacterSet": "ISO_IR 100",
      "StudyID": "1",
      "StudyTime": "174426.481000",
      "TransmitCoilName": "Body",
      "VariableFlipAngleFlag": "N",
      "WindowCenterWidthExplanation": "Algo1",
      "dBdt": 0.0},
    "slices": {}
  },
  "time": {
    "samples": {
      "AcquisitionNumber": [1, 2, 3, 4, 5, 6, 7, 8, 9, 10, 11, 12, 13, 14, 15, 16, 17, 18, 19, 20, 21, 22, 23, 24, 25, 26, 27, 28, 29, 30, 31, 32, 33, 34, 35, 36, 37, 38, 39, 40, 41, 42, 43, 44, 45, 46, 47, 48, 49, 50, 51, 52, 53, 54, 55, 56, 57, 58, 59, 60, 61, 62, 63, 64, 65, 66, 67, 68, 69, 70, 71, 72, 73, 74, 75, 76, 77, 78, 79, 80, 81, 82, 83, 84, 85, 86, 87, 88, 89, 90, 91, 92, 93, 94, 95, 96, 97, 98, 99, 100, 101, 102, 103, 104, 105, 106, 107, 108, 109, 110, 111, 112, 113, 114, 115, 116, 117, 118, 119, 120, 121, 122, 123, 124, 125, 126, 127, 128, 129, 130, 131, 132, 133, 134, 135, 136, 137, 138, 139, 140, 141, 142, 143, 144, 145, 146, 147, 148, 149, 150, 151, 152, 153, 154, 155, 156, 157, 158, 159, 160, 161, 162, 163, 164, 165, 166, 167, 168, 169, 170, 171, 172, 173, 174, 175, 176, 177, 178, 179, 180, 181, 182, 183, 184, 185, 186, 187, 188, 189, 190, 191, 192, 193, 194, 195, 196, 197, 198, 199, 200, 201, 202, 203, 204, 205, 206, 207, 208, 209, 210, 211, 212, 213, 214, 215, 216, 217, 218, 219, 220, 221, 222, 223, 224, 225, 226, 227, 228, 229, 230, 231, 232, 233, 234, 235, 236, 237, 238, 239, 240, 241, 242, 243, 244, 245, 246, 247, 248, 249, 250, 251, 252, 253, 254, 255, 256, 257, 258, 259, 260, 261, 262, 263, 264, 265, 266, 267, 268, 269, 270, 271, 272, 273, 274, 275, 276, 277, 278, 279, 280, 281, 282, 283, 284, 285, 286, 287, 288, 289, 290, 291, 292, 293, 294, 295, 296, 297, 298, 299, 300, 301, 302, 303, 304, 305, 306, 307, 308, 309, 310, 311, 312, 313, 314, 315, 316, 317, 318, 319, 320, 321, 322, 323, 324, 325, 326, 327, 328, 329, 330, 331, 332, 333, 334, 335, 336, 337, 338, 339, 340, 341, 342, 343, 344, 345, 346, 347, 348, 349, 350, 351, 352, 353, 354, 355, 356, 357, 358, 359, 360, 361, 362, 363, 364, 365, 366, 367, 368, 369, 370, 371, 372, 373, 374, 375, 376, 377, 378, 379, 380, 381, 382, 383, 384, 385, 386, 387, 388, 389, 390, 391, 392, 393, 394, 395, 396, 397, 398, 399, 400, 401, 402, 403, 404, 405, 406, 407, 408, 409, 410, 411, 412, 413, 414, 415, 416, 417, 418, 419, 420, 421, 422, 423, 424, 425, 426, 427, 428, 429, 430, 431, 432, 433, 434, 435, 436, 437, 438, 439, 440, 441, 442, 443, 444, 445, 446, 447, 448, 449, 450, 451, 452, 453, 454, 455, 456, 457, 458, 459, 460, 461, 462, 463, 464, 465, 466, 467, 468, 469, 470, 471, 472, 473, 474, 475, 476, 477, 478, 479, 480, 481, 482, 483, 484, 485, 486, 487, 488, 489, 490, 491, 492, 493, 494, 495, 496, 497, 498, 499, 500, 501, 502, 503, 504, 505, 506, 507, 508, 509, 510, 511, 512, 513, 514, 515, 516, 517, 518, 519, 520, 521, 522, 523, 524, 525, 526, 527, 528, 529, 530, 531, 532, 533, 534, 535],
      "AcquisitionTime": ["181420.950000", "181421.950000", "181422.950000", "181423.950000", "181424.950000", "181425.950000", "181426.950000", "181427.950000", "181428.950000", "181429.950000", "181430.950000", "181431.950000", "181432.950000", "181433.950000", "181434.950000", "181435.950000", "181436.950000", "181437.950000", "181438.950000", "181439.950000", "181440.950000", "181441.950000", "181442.950000", "181443.950000", "181444.950000", "181445.950000", "181446.950000", "181447.950000", "181448.950000", "181449.950000", "181450.950000", "181451.950000", "181452.950000", "181453.950000", "181454.950000", "181455.950000", "181456.950000", "181457.950000", "181458.950000", "181459.950000", "181500.950000", "181501.950000", "181502.950000", "181503.950000", "181504.950000", "181505.950000", "181506.950000", "181507.950000", "181508.950000", "181509.950000", "181510.950000", "181511.950000", "181512.950000", "181513.950000", "181514.950000", "181515.950000", "181516.950000", "181517.950000", "181518.950000", "181519.950000", "181520.950000", "181521.950000", "181522.950000", "181523.950000", "181524.950000", "181525.950000", "181526.950000", "181527.950000", "181528.950000", "181529.950000", "181530.950000", "181531.950000", "181532.950000", "181533.950000", "181534.950000", "181535.950000", "181536.950000", "181537.950000", "181538.950000", "181539.950000", "181540.950000", "181541.950000", "181542.950000", "181543.950000", "181544.950000", "181545.950000", "181546.950000", "181547.950000", "181548.950000", "181549.950000", "181550.950000", "181551.950000", "181552.950000", "181553.950000", "181554.950000", "181555.950000", "181556.950000", "181557.950000", "181558.950000", "181559.950000", "181600.950000", "181601.950000", "181602.950000", "181603.950000", "181604.950000", "181605.950000", "181606.950000", "181607.950000", "181608.950000", "181609.950000", "181610.950000", "181611.950000", "181612.950000", "181613.950000", "181614.950000", "181615.950000", "181616.950000", "181617.950000", "181618.950000", "181619.950000", "181620.950000", "181621.950000", "181622.950000", "181623.950000", "181624.950000", "181625.950000", "181626.950000", "181627.950000", "181628.950000", "181629.950000", "181630.950000", "181631.950000", "181632.950000", "181633.950000", "181634.950000", "181635.950000", "181636.950000", "181637.950000", "181638.950000", "181639.950000", "181640.950000", "181641.950000", "181642.950000", "181643.950000", "181644.950000", "181645.950000", "181646.950000", "181647.950000", "181648.950000", "181649.950000", "181650.950000", "181651.950000", "181652.950000", "181653.950000", "181654.950000", "181655.950000", "181656.950000", "181657.950000", "181658.950000", "181659.950000", "181700.950000", "181701.950000", "181702.950000", "181703.950000", "181704.950000", "181705.950000", "181706.950000", "181707.950000", "181708.950000", "181709.950000", "181710.950000", "181711.950000", "181712.950000", "181713.950000", "181714.950000", "181715.950000", "181716.950000", "181717.950000", "181718.950000", "181719.950000", "181720.950000", "181721.950000", "181722.950000", "181723.950000", "181724.950000", "181725.950000", "181726.950000", "181727.950000", "181728.950000", "181729.950000", "181730.950000", "181731.950000", "181732.950000", "181733.950000", "181734.950000", "181735.950000", "181736.950000", "181737.950000", "181738.950000", "181739.950000", "181740.950000", "181741.950000", "181742.950000", "181743.950000", "181744.950000", "181745.950000", "181746.950000", "181747.950000", "181748.950000", "181749.950000", "181750.950000", "181751.950000", "181752.950000", "181753.950000", "181754.950000", "181755.950000", "181756.950000", "181757.950000", "181758.950000", "181759.950000", "181800.950000", "181801.950000", "181802.950000", "181803.950000", "181804.950000", "181805.950000", "181806.950000", "181807.950000", "181808.950000", "181809.950000", "181810.950000", "181811.950000", "181812.950000", "181813.950000", "181814.950000", "181815.950000", "181816.950000", "181817.950000", "181818.950000", "181819.950000", "181820.950000", "181821.950000", "181822.950000", "181823.950000", "181824.950000", "181825.950000", "181826.950000", "181827.950000", "181828.950000", "181829.950000", "181830.950000", "181831.950000", "181832.950000", "181833.950000", "181834.950000", "181835.950000", "181836.950000", "181837.950000", "181838.950000", "181839.950000", "181840.950000", "181841.950000", "181842.950000", "181843.950000", "181844.950000", "181845.950000", "181846.950000", "181847.950000", "181848.950000", "181849.950000", "181850.950000", "181851.950000", "181852.950000", "181853.950000", "181854.950000", "181855.950000", "181856.950000", "181857.950000", "181858.950000", "181859.950000", "181900.950000", "181901.950000", "181902.950000", "181903.950000", "181904.950000", "181905.950000", "181906.950000", "181907.950000", "181908.950000", "181909.950000", "181910.950000", "181911.950000", "181912.950000", "181913.950000", "181914.950000", "181915.950000", "181916.950000", "181917.950000", "181918.950000", "181919.950000", "181920.950000", "181921.950000", "181922.950000", "181923.950000", "181924.950000", "181925.950000", "181926.950000", "181927.950000", "181928.950000", "181929.950000", "181930.950000", "181931.950000", "181932.950000", "181933.950000", "181934.950000", "181935.950000", "181936.950000", "181937.950000", "181938.950000", "181939.950000", "181940.950000", "181941.950000", "181942.950000", "181943.950000", "181944.950000", "181945.950000", "181946.950000", "181947.950000", "181948.950000", "181949.950000", "181950.950000", "181951.950000", "181952.950000", "181953.950000", "181954.950000", "181955.950000", "181956.950000", "181957.950000", "181958.950000", "181959.950000", "182000.950000", "182001.950000", "182002.950000", "182003.950000", "182004.950000", "182005.950000", "182006.950000", "182007.950000", "182008.950000", "182009.950000", "182010.950000", "182011.950000", "182012.950000", "182013.950000", "182014.950000", "182015.950000", "182016.950000", "182017.950000", "182018.950000", "182019.950000", "182020.950000", "182021.950000", "182022.950000", "182023.950000", "182024.950000", "182025.950000", "182026.950000", "182027.950000", "182028.950000", "182029.950000", "182030.950000", "182031.950000", "182032.950000", "182033.950000", "182034.950000", "182035.950000", "182036.950000", "182037.950000", "182038.950000", "182039.950000", "182040.950000", "182041.950000", "182042.950000", "182043.950000", "182044.950000", "182045.950000", "182046.950000", "182047.950000", "182048.950000", "182049.950000", "182050.950000", "182051.950000", "182052.950000", "182053.950000", "182054.950000", "182055.950000", "182056.950000", "182057.950000", "182058.950000", "182059.950000", "182100.950000", "182101.950000", "182102.950000", "182103.950000", "182104.950000", "182105.950000", "182106.950000", "182107.950000", "182108.950000", "182109.950000", "182110.950000", "182111.950000", "182112.950000", "182113.950000", "182114.950000", "182115.950000", "182116.950000", "182117.950000", "182118.950000", "182119.950000", "182120.950000", "182121.950000", "182122.950000", "182123.950000", "182124.950000", "182125.950000", "182126.950000", "182127.950000", "182128.950000", "182129.950000", "182130.950000", "182131.950000", "182132.950000", "182133.950000", "182134.950000", "182135.950000", "182136.950000", "182137.950000", "182138.950000", "182139.950000", "182140.950000", "182141.950000", "182142.950000", "182143.950000", "182144.950000", "182145.950000", "182146.950000", "182147.950000", "182148.950000", "182149.950000", "182150.950000", "182151.950000", "182152.950000", "182153.950000", "182154.950000", "182155.950000", "182156.950000", "182157.950000", "182158.950000", "182159.950000", "182200.950000", "182201.950000", "182202.950000", "182203.950000", "182204.950000", "182205.950000", "182206.950000", "182207.950000", "182208.950000", "182209.950000", "182210.950000", "182211.950000", "182212.950000", "182213.950000", "182214.950000", "182215.950000", "182216.950000", "182217.950000", "182218.950000", "182219.950000", "182220.950000", "182221.950000", "182222.950000", "182223.950000", "182224.950000", "182225.950000", "182226.950000", "182227.950000", "182228.950000", "182229.950000", "182230.950000", "182231.950000", "182232.950000", "182233.950000", "182234.950000", "182235.950000", "182236.950000", "182237.950000", "182238.950000", "182239.950000", "182240.950000", "182241.950000", "182242.950000", "182243.950000", "182244.950000", "182245.950000", "182246.950000", "182247.950000", "182248.950000", "182249.950000", "182250.950000", "182251.950000", "182252.950000", "182253.950000", "182254.950000", "182255.950000", "182256.950000", "182257.950000", "182258.950000", "182259.950000", "182300.950000", "182301.950000", "182302.950000", "182303.950000", "182304.950000", "182305.950000", "182306.950000", "182307.950000", "182308.950000", "182309.950000", "182310.950000", "182311.950000", "182312.950000", "182313.950000", "182314.950000"],
      "ContentTime": ["181421.921000", "181422.744000", "181423.734000", "181424.762000", "181425.760000", "181426.732000", "181427.757000", "181428.754000", "181429.747000", "181430.737000", "181431.750000", "181432.736000", "181433.734000", "181434.733000", "181435.746000", "181436.731000", "181437.730000", "181438.728000", "181439.742000", "181440.740000", "181441.778000", "181442.721000", "181443.739000", "181444.762000", "181445.719000", "181446.755000", "181447.733000", "181448.732000", "181449.750000", "181450.762000", "181451.730000", "181452.743000", "181453.723000", "181454.704000", "181455.716000", "181456.743000", "181457.745000", "181458.717000", "181459.725000", "181500.756000", "181501.738000", "181502.742000", "181503.738000", "181504.733000", "181505.727000", "181506.738000", "181507.778000", "181508.744000", "181509.747000", "181510.806000", "181511.741000", "181512.756000", "181513.782000", "181514.703000", "181515.746000", "181516.736000", "181517.728000", "181518.764000", "181519.776000", "181520.757000", "181521.802000", "181522.741000", "181523.797000", "181524.733000", "181525.768000", "181526.784000", "181527.728000", "181528.732000", "181529.753000", "181530.707000", "181531.731000", "181532.732000", "181533.736000", "181534.744000", "181535.731000", "181536.729000", "181537.732000", "181538.769000", "181539.740000", "181540.734000", "181541.715000", "181542.714000", "181543.736000", "181544.749000", "181545.737000", "181546.732000", "181547.714000", "181548.741000", "181549.743000", "181550.726000", "181551.739000", "181552.727000", "181553.730000", "181554.726000", "181555.744000", "181556.730000", "181557.737000", "181558.723000", "181559.735000", "181600.783000", "181601.748000", "181602.777000", "181603.802000", "181604.728000", "181605.736000", "181606.741000", "181607.760000", "181608.744000", "181609.714000", "181610.790000", "181611.771000", "181612.742000", "181613.735000", "181614.753000", "181615.733000", "181616.723000", "181617.747000", "181618.774000", "181619.757000", "181620.746000", "181621.739000", "181622.743000", "181623.771000", "181624.756000", "181625.722000", "181626.706000", "181627.739000", "181628.757000", "181629.723000", "181630.764000", "181631.741000", "181632.806000", "181633.755000", "181634.717000", "181635.737000", "181636.743000", "181637.735000", "181638.747000", "181639.750000", "181640.741000", "181641.745000", "181642.732000", "181643.764000", "181644.702000", "181645.726000", "181646.752000", "181647.747000", "181648.752000", "181649.733000", "181650.740000", "181651.731000", "181652.789000", "181653.757000", "181654.752000", "181655.778000", "181656.728000", "181657.812000", "181658.735000", "181659.737000", "181700.731000", "181701.784000", "181702.779000", "181703.751000", "181704.736000", "181705.731000", "181706.740000", "181707.732000", "181708.740000", "181709.769000", "181710.734000", "181711.744000", "181712.746000", "181713.740000", "181714.734000", "181715.755000", "181716.738000", "181717.747000", "181718.720000", "181719.732000", "181720.720000", "181721.734000", "181722.760000", "181723.748000", "181724.747000", "181725.750000", "181726.815000", "181727.738000", "181728.766000", "181729.746000", "181730.753000", "181731.777000", "181732.841000", "181733.740000", "181734.730000", "181735.776000", "181736.802000", "181737.738000", "181738.738000", "181739.753000", "181740.746000", "181741.757000", "181742.741000", "181743.714000", "181744.728000", "181745.733000", "181746.750000", "181747.770000", "181748.784000", "181749.772000", "181750.754000", "181751.751000", "181752.752000", "181753.764000", "181754.743000", "181755.728000", "181756.749000", "181757.774000", "181758.742000", "181759.763000", "181800.754000", "181801.740000", "181802.764000", "181803.727000", "181804.756000", "181805.728000", "181806.765000", "181807.741000", "181808.737000", "181809.742000", "181810.746000", "181811.756000", "181812.844000", "181813.750000", "181814.767000", "181815.722000", "181816.761000", "181817.739000", "181818.768000", "181819.741000", "181820.761000", "181821.751000", "181822.744000", "181823.735000", "181824.751000", "181825.743000", "181826.733000", "181827.712000", "181828.742000", "181829.746000", "181830.728000", "181831.818000", "181832.766000", "181833.785000", "181834.750000", "181835.747000", "181836.762000", "181837.779000", "181838.739000", "181839.718000", "181840.742000", "181841.753000", "181842.759000", "181843.742000", "181844.772000", "181845.727000", "181846.744000", "181847.743000", "181848.740000", "181849.754000", "181850.728000", "181851.715000", "181852.711000", "181853.734000", "181854.737000", "181855.753000", "181856.735000", "181857.793000", "181858.739000", "181859.732000", "181900.748000", "181901.744000", "181902.761000", "181903.731000", "181904.756000", "181905.719000", "181906.742000", "181907.739000", "181908.721000", "181909.747000", "181910.754000", "181911.733000", "181912.735000", "181913.738000", "181914.728000", "181915.743000", "181916.748000", "181917.733000", "181918.765000", "181919.746000", "181920.736000", "181921.725000", "181922.749000", "181923.737000", "181924.742000", "181925.752000", "181926.760000", "181927.726000", "181928.738000", "181929.747000", "181930.734000", "181931.764000", "181932.774000", "181933.734000", "181934.729000", "181935.735000", "181936.773000", "181937.732000", "181938.733000", "181939.730000", "181940.729000", "181941.750000", "181942.742000", "181943.700000", "181944.744000", "181945.718000", "181946.741000", "181947.730000", "181948.729000", "181949.729000", "181950.742000", "181951.749000", "181952.727000", "181953.726000", "181954.751000", "181955.736000", "181956.767000", "181957.710000", "181958.740000", "181959.796000", "182000.762000", "182001.716000", "182002.741000", "182003.749000", "182004.737000", "182005.723000", "182006.737000", "182007.736000", "182008.749000", "182009.741000", "182010.778000", "182011.739000", "182012.721000", "182013.741000", "182014.770000", "182015.758000", "182016.761000", "182017.756000", "182018.764000", "182019.746000", "182020.726000", "182021.742000", "182022.754000", "182023.733000", "182024.736000", "182025.745000", "182026.739000", "182027.767000", "182028.739000", "182029.746000", "182030.730000", "182031.757000", "182032.758000", "182033.747000", "182034.728000", "182035.739000", "182036.765000", "182037.743000", "182038.763000", "182039.735000", "182040.761000", "182041.747000", "182042.717000", "182043.752000", "182044.739000", "182045.715000", "182046.730000", "182047.745000", "182048.715000", "182049.743000", "182050.735000", "182051.740000", "182052.727000", "182053.736000", "182054.733000", "182055.733000", "182056.763000", "182057.738000", "182058.743000", "182059.743000", "182100.752000", "182101.739000", "182102.738000", "182103.745000", "182104.777000", "182105.787000", "182106.821000", "182107.712000", "182108.705000", "182109.734000", "182110.731000", "182111.748000", "182112.706000", "182113.760000", "182114.754000", "182115.728000", "182116.728000", "182117.734000", "182118.710000", "182119.752000", "182120.741000", "182121.751000", "182122.826000", "182123.741000", "182124.740000", "182125.747000", "182126.764000", "182127.725000", "182128.741000", "182129.728000", "182130.730000", "182131.733000", "182132.758000", "182133.735000", "182134.734000", "182135.705000", "182136.748000", "182137.746000", "182138.724000", "182139.756000", "182140.724000", "182141.732000", "182142.777000", "182143.736000", "182144.721000", "182145.724000", "182146.735000", "182147.754000", "182148.710000", "182149.788000", "182150.746000", "182151.728000", "182152.757000", "182153.777000", "182154.746000", "182155.731000", "182156.746000", "182157.730000", "182158.737000", "182159.771000", "182200.730000", "182201.733000", "182202.740000", "182203.745000", "182204.753000", "182205.785000", "182206.730000", "182207.754000", "182208.807000", "182209.731000", "182210.756000", "182211.736000", "182212.774000", "182213.736000", "182214.735000", "182215.811000", "182216.774000", "182217.761000", "182218.769000", "182219.753000", "182220.750000", "182221.823000", "182222.751000", "182223.709000", "182224.733000", "182225.791000", "182226.739000", "182227.728000", "182228.741000", "182229.721000", "182230.711000", "182231.717000", "182232.731000", "182233.755000", "182234.741000", "182235.733000", "182236.743000", "182237.715000", "182238.802000", "182239.798000", "182241.021000", "182241.778000", "182242.784000", "182243.794000", "182244.794000", "182245.802000", "182246.788000", "182247.779000", "182248.794000", "182249.756000", "182250.785000", "182251.784000", "182252.765000", "182253.781000", "182254.787000", "182255.790000", "182256.772000", "182257.825000", "182258.799000", "182259.777000", "182300.753000", "182301.771000", "182302.842000", "182303.826000", "182304.857000", "182305.824000", "182306.837000", "182307.792000", "182308.782000", "182309.784000", "182310.806000", "182311.832000", "182312.857000", "182313.797000", "182314.791000", "182315.768000"],
