{
  "AcquisitionMatrixPE": 96,
  "AcquisitionNumber": 1,
  "AcquisitionTime": "18:05:9.225000",
  "BandwidthPerPixelPhaseEncode": 18.939,
  "BaseResolution": 96,
  "BodyPartExamined": "BRAIN",
  "ConsistencyInfo": "N4_VE11C_LATEST_20160120",
  "ConversionSoftware": "dcm2niix",
  "ConversionSoftwareVersion": "v1.0.20190902",
  "DerivedVendorReportedEchoSpacing": 0.000550011,
  "DeviceSerialNumber": "66112",
  "DwellTime": 2.2e-06,
  "EchoTime": 0.033,
  "EchoTrainLength": 96,
  "EffectiveEchoSpacing": 0.000550011,
  "FlipAngle": 59,
  "ImageOrientationPatientDICOM": [0.999111, 0.0399387, 0.0135113, -0.0415258, 0.987604, 0.151377],
  "ImageType": [
    "ORIGINAL",
    "PRIMARY",
    "FMRI",
    "NONE",
    "ND",
    "NORM",
    "MOSAIC"
],
  "ImagingFrequency": 123.252,
  "InPlanePhaseEncodingDirectionDICOM": "COL",
  "InstitutionAddress": "Maynard_3_Hanover_NH_US_03755",
  "InstitutionName": "Dartmouth_College_-_PBS",
  "InstitutionalDepartmentName": "Department",
  "MRAcquisitionType": "2D",
  "MagneticFieldStrength": 3,
  "Manufacturer": "Siemens",
  "ManufacturersModelName": "Prisma",
  "Modality": "MR",
  "MultibandAccelerationFactor": 4,
  "PartialFourier": 1,
  "PatientPosition": "HFS",
  "PercentPhaseFOV": 100,
  "PhaseEncodingDirection": "j-",
  "PhaseEncodingSteps": 96,
  "PhaseResolution": 1,
  "PixelBandwidth": 2365,
  "ProcedureStepDescription": "Gobbini_Matteo_1037_budapest",
  "ProtocolName": "func_run-02_task-movie",
  "PulseSequenceDetails": "%SiemensSeq%_ep2d_bold",
  "ReceiveCoilActiveElements": "HEA;HEP",
  "ReceiveCoilName": "Head_32",
  "ReconMatrixPE": 96,
  "RefLinesPE": 12,
  "RepetitionTime": 1,
  "SAR": 0.0527343,
  "ScanOptions": "FS",
  "ScanningSequence": "EP",
  "SequenceName": "_epfid2d1_96",
  "SequenceVariant": "SK",
  "SeriesDescription": "func_run-02_task-movie",
  "SeriesNumber": 15,
  "ShimSetting": [4132, -7721, -7294, 540, -4, -215, 22, 77],
  "SliceThickness": 2.5,
  "SliceTiming": [0.735, 0, 0.49, 0.0825, 0.5725, 0.165, 0.655, 0.3275, 0.8175, 0.41, 0.9, 0.245, 0.735, 0, 0.49, 0.0825, 0.5725, 0.165, 0.655, 0.3275, 0.8175, 0.41, 0.9, 0.245, 0.735, 0, 0.49, 0.0825, 0.5725, 0.165, 0.655, 0.3275, 0.8175, 0.41, 0.9, 0.245, 0.735, 0, 0.49, 0.0825, 0.5725, 0.165, 0.655, 0.3275, 0.8175, 0.41, 0.9, 0.245],
  "SoftwareVersions": "syngo_MR_E11",
  "SpacingBetweenSlices": 2.5,
  "StationName": "AWP66112",
  "TaskName": "movie",
  "TotalReadoutTime": 0.0522511,
  "TxRefAmp": 255.721,
  "dcmmeta_affine": [
    [-2.497776985168457, -0.10381443798542023, 0.018244992941617966, 127.28705596923828],
    [-0.09984663873910904, 2.4690089225769043, 0.37950775027275085, -107.25621795654297],
    [0.033778171986341476, -0.37844160199165344, 2.470959424972534, -51.45216751098633],
    [0.0, 0.0, 0.0, 1.0]
],
  "dcmmeta_reorient_transform": [
    [0.0, -1.0, 0.0, 95.0],
    [1.0, 0.0, 0.0, 0.0],
    [0.0, 0.0, 1.0, 0.0],
    [0.0, 0.0, 0.0, 1.0]
],
  "dcmmeta_shape": [96, 96, 48, 498],
  "dcmmeta_slice_dim": 2,
  "dcmmeta_version": 0.6,
  "global": {
    "const": {
      "AccessionNumber": "A001174",
      "AcquisitionMatrix": [96, 0, 0, 96],
      "AngioFlag": "N",
      "BitsAllocated": 16,
      "BitsStored": 12,
      "BodyPartExamined": "BRAIN",
      "Columns": 672,
      "EchoNumbers": 1,
      "EchoTime": 33.0,
      "EchoTrainLength": 96,
      "FlipAngle": 59.0,
      "HighBit": 11,
      "ImageOrientationPatient": [0.99911077931987, 0.03993865632632, 0.01351126854521, -0.0415257737724, 0.98760352557341, 0.15137663752239],
      "ImagePositionPatient": [-806.8858850123, -867.12999327589, -206.12341006651],
      "ImageType": [
        "ORIGINAL",
        "PRIMARY",
        "FMRI",
        "NONE",
        "ND",
        "NORM",
        "MOSAIC"
],
      "ImagedNucleus": "1H",
      "ImagingFrequency": 123.252296,
      "InPlanePhaseEncodingDirection": "COL",
      "MRAcquisitionType": "2D",
      "MagneticFieldStrength": 3.0,
      "Manufacturer": "SIEMENS",
      "ManufacturerModelName": "Prisma",
      "Modality": "MR",
      "NumberOfAverages": 1.0,
      "NumberOfPhaseEncodingSteps": 96,
      "PercentPhaseFieldOfView": 100.0,
      "PercentSampling": 100.0,
      "PerformedProcedureStepStartTime": "174426.543000",
      "PhotometricInterpretation": "MONOCHROME2",
      "PixelBandwidth": 2365.0,
      "PixelRepresentation": 0,
      "PixelSpacing": [2.5, 2.5],
      "ProtocolName": "func_run-02_task-movie",
      "RepetitionTime": 1000.0,
      "Rows": 672,
      "SAR": 0.05273434952914,
      "SamplesPerPixel": 1,
      "ScanOptions": "FS",
      "ScanningSequence": "EP",
      "SequenceName": "*epfid2d1_96",
      "SequenceVariant": "SK",
      "SeriesDescription": "func_run-02_task-movie",
      "SeriesNumber": 15,
      "SeriesTime": "180510.254000",
      "SliceLocation": -66.20737323768,
      "SliceThickness": 2.5,
      "SmallestImagePixelValue": 0,
      "SoftwareVersions": "syngo MR E11",
      "SpacingBetweenSlices": 2.4999999935506,
      "SpecificCharacterSet": "ISO_IR 100",
      "StudyID": "1",
      "StudyTime": "174426.481000",
      "TransmitCoilName": "Body",
      "VariableFlipAngleFlag": "N",
      "WindowCenterWidthExplanation": "Algo1",
      "dBdt": 0.0},
    "slices": {}
  },
  "time": {
    "samples": {
      "AcquisitionNumber": [1, 2, 3, 4, 5, 6, 7, 8, 9, 10, 11, 12, 13, 14, 15, 16, 17, 18, 19, 20, 21, 22, 23, 24, 25, 26, 27, 28, 29, 30, 31, 32, 33, 34, 35, 36, 37, 38, 39, 40, 41, 42, 43, 44, 45, 46, 47, 48, 49, 50, 51, 52, 53, 54, 55, 56, 57, 58, 59, 60, 61, 62, 63, 64, 65, 66, 67, 68, 69, 70, 71, 72, 73, 74, 75, 76, 77, 78, 79, 80, 81, 82, 83, 84, 85, 86, 87, 88, 89, 90, 91, 92, 93, 94, 95, 96, 97, 98, 99, 100, 101, 102, 103, 104, 105, 106, 107, 108, 109, 110, 111, 112, 113, 114, 115, 116, 117, 118, 119, 120, 121, 122, 123, 124, 125, 126, 127, 128, 129, 130, 131, 132, 133, 134, 135, 136, 137, 138, 139, 140, 141, 142, 143, 144, 145, 146, 147, 148, 149, 150, 151, 152, 153, 154, 155, 156, 157, 158, 159, 160, 161, 162, 163, 164, 165, 166, 167, 168, 169, 170, 171, 172, 173, 174, 175, 176, 177, 178, 179, 180, 181, 182, 183, 184, 185, 186, 187, 188, 189, 190, 191, 192, 193, 194, 195, 196, 197, 198, 199, 200, 201, 202, 203, 204, 205, 206, 207, 208, 209, 210, 211, 212, 213, 214, 215, 216, 217, 218, 219, 220, 221, 222, 223, 224, 225, 226, 227, 228, 229, 230, 231, 232, 233, 234, 235, 236, 237, 238, 239, 240, 241, 242, 243, 244, 245, 246, 247, 248, 249, 250, 251, 252, 253, 254, 255, 256, 257, 258, 259, 260, 261, 262, 263, 264, 265, 266, 267, 268, 269, 270, 271, 272, 273, 274, 275, 276, 277, 278, 279, 280, 281, 282, 283, 284, 285, 286, 287, 288, 289, 290, 291, 292, 293, 294, 295, 296, 297, 298, 299, 300, 301, 302, 303, 304, 305, 306, 307, 308, 309, 310, 311, 312, 313, 314, 315, 316, 317, 318, 319, 320, 321, 322, 323, 324, 325, 326, 327, 328, 329, 330, 331, 332, 333, 334, 335, 336, 337, 338, 339, 340, 341, 342, 343, 344, 345, 346, 347, 348, 349, 350, 351, 352, 353, 354, 355, 356, 357, 358, 359, 360, 361, 362, 363, 364, 365, 366, 367, 368, 369, 370, 371, 372, 373, 374, 375, 376, 377, 378, 379, 380, 381, 382, 383, 384, 385, 386, 387, 388, 389, 390, 391, 392, 393, 394, 395, 396, 397, 398, 399, 400, 401, 402, 403, 404, 405, 406, 407, 408, 409, 410, 411, 412, 413, 414, 415, 416, 417, 418, 419, 420, 421, 422, 423, 424, 425, 426, 427, 428, 429, 430, 431, 432, 433, 434, 435, 436, 437, 438, 439, 440, 441, 442, 443, 444, 445, 446, 447, 448, 449, 450, 451, 452, 453, 454, 455, 456, 457, 458, 459, 460, 461, 462, 463, 464, 465, 466, 467, 468, 469, 470, 471, 472, 473, 474, 475, 476, 477, 478, 479, 480, 481, 482, 483, 484, 485, 486, 487, 488, 489, 490, 491, 492, 493, 494, 495, 496, 497, 498],
      "AcquisitionTime": ["180509.225000", "180510.225000", "180511.225000", "180512.225000", "180513.225000", "180514.225000", "180515.225000", "180516.225000", "180517.225000", "180518.225000", "180519.225000", "180520.225000", "180521.225000", "180522.225000", "180523.225000", "180524.225000", "180525.225000", "180526.225000", "180527.225000", "180528.225000", "180529.225000", "180530.225000", "180531.225000", "180532.225000", "180533.225000", "180534.225000", "180535.225000", "180536.225000", "180537.225000", "180538.225000", "180539.225000", "180540.225000", "180541.225000", "180542.225000", "180543.225000", "180544.225000", "180545.225000", "180546.225000", "180547.225000", "180548.225000", "180549.225000", "180550.225000", "180551.225000", "180552.225000", "180553.225000", "180554.225000", "180555.225000", "180556.225000", "180557.225000", "180558.225000", "180559.225000", "180600.225000", "180601.225000", "180602.225000", "180603.225000", "180604.225000", "180605.225000", "180606.225000", "180607.225000", "180608.225000", "180609.225000", "180610.225000", "180611.225000", "180612.225000", "180613.225000", "180614.225000", "180615.225000", "180616.225000", "180617.225000", "180618.225000", "180619.225000", "180620.225000", "180621.225000", "180622.225000", "180623.225000", "180624.225000", "180625.225000", "180626.225000", "180627.225000", "180628.225000", "180629.225000", "180630.225000", "180631.225000", "180632.225000", "180633.225000", "180634.225000", "180635.225000", "180636.225000", "180637.225000", "180638.225000", "180639.225000", "180640.225000", "180641.225000", "180642.225000", "180643.225000", "180644.225000", "180645.225000", "180646.225000", "180647.225000", "180648.225000", "180649.225000", "180650.225000", "180651.225000", "180652.225000", "180653.225000", "180654.225000", "180655.225000", "180656.225000", "180657.225000", "180658.225000", "180659.225000", "180700.225000", "180701.225000", "180702.225000", "180703.225000", "180704.225000", "180705.225000", "180706.225000", "180707.225000", "180708.225000", "180709.225000", "180710.225000", "180711.225000", "180712.225000", "180713.225000", "180714.225000", "180715.225000", "180716.225000", "180717.225000", "180718.225000", "180719.225000", "180720.225000", "180721.225000", "180722.225000", "180723.225000", "180724.225000", "180725.225000", "180726.225000", "180727.225000", "180728.225000", "180729.225000", "180730.225000", "180731.225000", "180732.225000", "180733.225000", "180734.225000", "180735.225000", "180736.225000", "180737.225000", "180738.225000", "180739.225000", "180740.225000", "180741.225000", "180742.225000", "180743.225000", "180744.225000", "180745.225000", "180746.225000", "180747.225000", "180748.225000", "180749.225000", "180750.225000", "180751.225000", "180752.225000", "180753.225000", "180754.225000", "180755.225000", "180756.225000", "180757.225000", "180758.225000", "180759.225000", "180800.225000", "180801.225000", "180802.225000", "180803.225000", "180804.225000", "180805.225000", "180806.225000", "180807.225000", "180808.225000", "180809.225000", "180810.225000", "180811.225000", "180812.225000", "180813.225000", "180814.225000", "180815.225000", "180816.225000", "180817.225000", "180818.225000", "180819.225000", "180820.225000", "180821.225000", "180822.225000", "180823.225000", "180824.225000", "180825.225000", "180826.225000", "180827.225000", "180828.225000", "180829.225000", "180830.225000", "180831.225000", "180832.225000", "180833.225000", "180834.225000", "180835.225000", "180836.225000", "180837.225000", "180838.225000", "180839.225000", "180840.225000", "180841.225000", "180842.225000", "180843.225000", "180844.225000", "180845.225000", "180846.225000", "180847.225000", "180848.225000", "180849.225000", "180850.225000", "180851.225000", "180852.225000", "180853.225000", "180854.225000", "180855.225000", "180856.225000", "180857.225000", "180858.225000", "180859.225000", "180900.225000", "180901.225000", "180902.225000", "180903.225000", "180904.225000", "180905.225000", "180906.225000", "180907.225000", "180908.225000", "180909.225000", "180910.225000", "180911.225000", "180912.225000", "180913.225000", "180914.225000", "180915.225000", "180916.225000", "180917.225000", "180918.225000", "180919.225000", "180920.225000", "180921.225000", "180922.225000", "180923.225000", "180924.225000", "180925.225000", "180926.225000", "180927.225000", "180928.225000", "180929.225000", "180930.225000", "180931.225000", "180932.225000", "180933.225000", "180934.225000", "180935.225000", "180936.225000", "180937.225000", "180938.225000", "180939.225000", "180940.225000", "180941.225000", "180942.225000", "180943.225000", "180944.225000", "180945.225000", "180946.225000", "180947.225000", "180948.225000", "180949.225000", "180950.225000", "180951.225000", "180952.225000", "180953.225000", "180954.225000", "180955.225000", "180956.225000", "180957.225000", "180958.225000", "180959.225000", "181000.225000", "181001.225000", "181002.225000", "181003.225000", "181004.225000", "181005.225000", "181006.225000", "181007.225000", "181008.225000", "181009.225000", "181010.225000", "181011.225000", "181012.225000", "181013.225000", "181014.225000", "181015.225000", "181016.225000", "181017.225000", "181018.225000", "181019.225000", "181020.225000", "181021.225000", "181022.225000", "181023.225000", "181024.225000", "181025.225000", "181026.225000", "181027.225000", "181028.225000", "181029.225000", "181030.225000", "181031.225000", "181032.225000", "181033.225000", "181034.225000", "181035.225000", "181036.225000", "181037.225000", "181038.225000", "181039.225000", "181040.225000", "181041.225000", "181042.225000", "181043.225000", "181044.225000", "181045.225000", "181046.225000", "181047.225000", "181048.225000", "181049.225000", "181050.225000", "181051.225000", "181052.225000", "181053.225000", "181054.225000", "181055.225000", "181056.225000", "181057.225000", "181058.225000", "181059.225000", "181100.225000", "181101.225000", "181102.225000", "181103.225000", "181104.225000", "181105.225000", "181106.225000", "181107.225000", "181108.225000", "181109.225000", "181110.225000", "181111.225000", "181112.225000", "181113.225000", "181114.225000", "181115.225000", "181116.225000", "181117.225000", "181118.225000", "181119.225000", "181120.225000", "181121.225000", "181122.225000", "181123.225000", "181124.225000", "181125.225000", "181126.225000", "181127.225000", "181128.225000", "181129.225000", "181130.225000", "181131.225000", "181132.225000", "181133.225000", "181134.225000", "181135.225000", "181136.225000", "181137.225000", "181138.225000", "181139.225000", "181140.225000", "181141.225000", "181142.225000", "181143.225000", "181144.225000", "181145.225000", "181146.225000", "181147.225000", "181148.225000", "181149.225000", "181150.225000", "181151.225000", "181152.225000", "181153.225000", "181154.225000", "181155.225000", "181156.225000", "181157.225000", "181158.225000", "181159.225000", "181200.225000", "181201.225000", "181202.225000", "181203.225000", "181204.225000", "181205.225000", "181206.225000", "181207.225000", "181208.225000", "181209.225000", "181210.225000", "181211.225000", "181212.225000", "181213.225000", "181214.225000", "181215.225000", "181216.225000", "181217.225000", "181218.225000", "181219.225000", "181220.225000", "181221.225000", "181222.225000", "181223.225000", "181224.225000", "181225.225000", "181226.225000", "181227.225000", "181228.225000", "181229.225000", "181230.225000", "181231.225000", "181232.225000", "181233.225000", "181234.225000", "181235.225000", "181236.225000", "181237.225000", "181238.225000", "181239.225000", "181240.225000", "181241.225000", "181242.225000", "181243.225000", "181244.225000", "181245.225000", "181246.225000", "181247.225000", "181248.225000", "181249.225000", "181250.225000", "181251.225000", "181252.225000", "181253.225000", "181254.225000", "181255.225000", "181256.225000", "181257.225000", "181258.225000", "181259.225000", "181300.225000", "181301.225000", "181302.225000", "181303.225000", "181304.225000", "181305.225000", "181306.225000", "181307.225000", "181308.225000", "181309.225000", "181310.225000", "181311.225000", "181312.225000", "181313.225000", "181314.225000", "181315.225000", "181316.225000", "181317.225000", "181318.225000", "181319.225000", "181320.225000", "181321.225000", "181322.225000", "181323.225000", "181324.225000", "181325.225000", "181326.225000"],
      "ContentTime": ["180510.258000", "180511.049000", "180512.043000", "180513.053000", "180514.037000", "180515.048000", "180516.051000", "180517.033000", "180518.087000", "180519.033000", "180520.038000", "180521.050000", "180522.035000", "180523.036000", "180524.033000", "180525.110000", "180526.043000", "180527.100000", "180528.056000", "180529.036000", "180530.064000", "180531.047000", "180532.056000", "180533.041000", "180534.033000", "180535.057000", "180536.015000", "180537.049000", "180538.028000", "180539.037000", "180540.026000", "180541.054000", "180542.034000", "180543.048000", "180544.065000", "180545.043000", "180546.044000", "180547.024000", "180548.040000", "180549.047000", "180550.067000", "180551.052000", "180552.057000", "180553.049000", "180554.047000", "180555.033000", "180556.083000", "180557.067000", "180558.027000", "180559.065000", "180600.067000", "180601.053000", "180602.020000", "180603.041000", "180604.037000", "180605.035000", "180606.036000", "180607.123000", "180608.026000", "180609.040000", "180610.046000", "180611.039000", "180612.048000", "180613.075000", "180614.101000", "180615.094000", "180616.032000", "180617.044000", "180618.033000", "180619.010000", "180620.028000", "180621.022000", "180622.049000", "180623.033000", "180624.050000", "180625.036000", "180626.036000", "180627.031000", "180628.024000", "180629.046000", "180630.062000", "180631.064000", "180632.091000", "180633.049000", "180634.042000", "180635.050000", "180636.058000", "180637.076000", "180638.032000", "180639.027000", "180640.033000", "180641.043000", "180642.051000", "180643.065000", "180644.029000", "180645.077000", "180646.086000", "180647.036000", "180648.049000", "180649.035000", "180650.054000", "180651.046000", "180652.068000", "180653.075000", "180654.081000", "180655.040000", "180656.045000", "180657.070000", "180658.039000", "180659.062000", "180700.043000", "180701.053000", "180702.053000", "180703.047000", "180704.034000", "180705.046000", "180706.045000", "180707.029000", "180708.036000", "180709.049000", "180710.050000", "180711.063000", "180712.041000", "180713.044000", "180714.047000", "180715.046000", "180716.036000", "180717.071000", "180718.051000", "180719.053000", "180720.076000", "180721.072000", "180722.059000", "180723.044000", "180724.050000", "180725.076000", "180726.127000", "180727.046000", "180728.046000", "180729.046000", "180730.066000", "180731.046000", "180732.017000", "180733.088000", "180734.073000", "180735.049000", "180736.058000", "180737.057000", "180738.017000", "180739.066000", "180740.039000", "180741.051000", "180742.028000", "180743.076000", "180744.062000", "180745.087000", "180746.083000", "180747.055000", "180748.050000", "180749.081000", "180750.080000", "180751.046000", "180752.055000", "180753.044000", "180754.055000", "180755.048000", "180756.076000", "180757.046000", "180758.048000", "180759.048000", "180800.060000", "180801.033000", "180802.104000", "180803.061000", "180804.046000", "180805.044000", "180806.106000", "180807.087000", "180808.074000", "180809.053000", "180810.081000", "180811.054000", "180812.065000", "180813.026000", "180814.079000", "180815.056000", "180816.040000", "180817.045000", "180818.061000", "180819.048000", "180820.029000", "180821.048000", "180822.046000", "180823.036000", "180824.030000", "180825.049000", "180826.053000", "180827.049000", "180828.034000", "180829.049000", "180830.044000", "180831.035000", "180832.042000", "180833.050000", "180834.050000", "180835.027000", "180836.040000", "180837.040000", "180838.050000", "180839.054000", "180840.038000", "180841.045000", "180842.056000", "180843.049000", "180844.068000", "180845.039000", "180846.066000", "180847.050000", "180848.046000", "180849.046000", "180850.060000", "180851.048000", "180852.064000", "180853.064000", "180854.057000", "180855.042000", "180856.046000", "180857.069000", "180858.040000", "180859.074000", "180900.101000", "180901.075000", "180902.121000", "180903.057000", "180904.036000", "180905.040000", "180906.094000", "180907.011000", "180908.079000", "180909.016000", "180910.052000", "180911.042000", "180912.049000", "180913.044000", "180914.043000", "180915.103000", "180916.063000", "180917.063000", "180918.110000", "180919.067000", "180920.043000", "180921.049000", "180922.050000", "180923.051000", "180924.063000", "180925.054000", "180926.034000", "180927.032000", "180928.028000", "180929.041000", "180930.094000", "180931.043000", "180932.026000", "180933.050000", "180934.045000", "180935.056000", "180936.049000", "180937.014000", "180938.047000", "180939.026000", "180940.046000", "180941.031000", "180942.053000", "180943.036000", "180944.064000", "180945.080000", "180946.042000", "180947.068000", "180948.047000", "180949.055000", "180950.064000", "180951.038000", "180952.040000", "180953.038000", "180954.054000", "180955.103000", "180956.047000", "180957.036000", "180958.053000", "180959.085000", "181000.049000", "181001.039000", "181002.056000", "181003.053000", "181004.086000", "181005.053000", "181006.039000", "181007.047000", "181008.082000", "181009.051000", "181010.031000", "181011.081000", "181012.038000", "181013.037000", "181014.053000", "181015.041000", "181016.055000", "181017.049000", "181018.055000", "181019.049000", "181020.044000", "181021.016000", "181022.063000", "181023.049000", "181024.051000", "181025.061000", "181026.053000", "181027.042000", "181028.032000", "181029.041000", "181030.038000", "181031.065000", "181032.042000", "181033.024000", "181034.021000", "181035.054000", "181036.037000", "181037.034000", "181038.024000", "181039.069000", "181040.056000", "181041.046000", "181042.079000", "181043.076000", "181044.060000", "181045.042000", "181046.029000", "181047.051000", "181048.055000", "181049.041000", "181050.082000", "181051.046000", "181052.064000", "181053.030000", "181054.044000", "181055.044000", "181056.052000", "181057.032000", "181058.061000", "181059.066000", "181100.054000", "181101.026000", "181102.035000", "181103.052000", "181104.028000", "181105.067000", "181106.044000", "181107.052000", "181108.019000", "181109.051000", "181110.038000", "181111.061000", "181112.043000", "181113.030000", "181114.052000", "181115.076000", "181116.058000", "181117.033000", "181118.047000", "181119.047000", "181120.058000", "181121.126000", "181122.064000", "181123.044000", "181124.060000", "181125.059000", "181126.071000", "181127.083000", "181128.045000", "181129.052000", "181130.046000", "181131.071000", "181132.036000", "181133.020000", "181134.050000", "181135.052000", "181136.083000", "181137.041000", "181138.048000", "181139.058000", "181140.039000", "181141.034000", "181142.060000", "181143.047000", "181144.047000", "181145.038000", "181146.057000", "181147.042000", "181148.022000", "181149.112000", "181150.030000", "181151.046000", "181152.034000", "181153.061000", "181154.024000", "181155.089000", "181156.028000", "181157.024000", "181158.045000", "181159.015000", "181200.032000", "181201.053000", "181202.052000", "181203.055000", "181204.049000", "181205.040000", "181206.038000", "181207.023000", "181208.042000", "181209.067000", "181210.048000", "181211.069000", "181212.053000", "181213.045000", "181214.044000", "181215.063000", "181216.017000", "181217.030000", "181218.046000", "181219.052000", "181220.044000", "181221.038000", "181222.018000", "181223.033000", "181224.043000", "181225.046000", "181226.041000", "181227.028000", "181228.046000", "181229.044000", "181230.071000", "181231.057000", "181232.058000", "181233.044000", "181234.034000", "181235.057000", "181236.066000", "181237.056000", "181238.047000", "181239.031000", "181240.031000", "181241.030000", "181242.036000", "181243.076000", "181244.054000", "181245.040000", "181246.066000", "181247.060000", "181248.059000", "181249.054000", "181250.046000", "181251.053000", "181252.121000", "181253.047000", "181254.043000", "181255.043000", "181256.031000", "181257.043000", "181258.034000", "181259.039000", "181300.029000", "181301.070000", "181302.102000", "181303.050000", "181304.068000", "181305.083000", "181306.035000", "181307.039000", "181308.048000", "181309.040000", "181310.046000", "181311.087000", "181312.025000", "181313.050000", "181314.045000", "181315.023000", "181316.036000", "181317.032000", "181318.053000", "181319.028000", "181320.042000", "181321.037000", "181322.069000", "181323.031000", "181324.035000", "181325.019000", "181326.037000", "181327.091000"],
