{
  "AcquisitionMatrixPE": 96,
  "AcquisitionNumber": 1,
  "AcquisitionTime": "18:21:25.277500",
  "BaseResolution": 96,
  "BodyPartExamined": "BRAIN",
  "ConsistencyInfo": "N4_VE11C_LATEST_20160120",
  "ConversionSoftware": "dcm2niix",
  "ConversionSoftwareVersion": "v1.0.20190902",
  "DeviceSerialNumber": "66112",
  "DwellTime": 8.8e-06,
  "EchoNumber": 2,
  "EchoTime": 0.00738,
  "EchoTime1": 0.00492,
  "EchoTime2": 0.00738,
  "FlipAngle": 60,
  "ImageOrientationPatientDICOM": [
    1,
    0,
    2.423e-12,
    0,
    1,
    3.144e-12
  ],
  "ImageType": [
    "ORIGINAL",
    "PRIMARY",
    "P",
    "ND"
  ],
  "ImagingFrequency": 123.252,
  "InPlanePhaseEncodingDirectionDICOM": "COL",
  "InstitutionAddress": "Maynard_3_Hanover_NH_US_03755",
  "InstitutionName": "Dartmouth_College_-_PBS",
  "InstitutionalDepartmentName": "Department",
  "IntendedFor": [
    "func/sub-sid000030_task-movie_run-01_bold.nii.gz",
    "func/sub-sid000030_task-movie_run-02_bold.nii.gz",
    "func/sub-sid000030_task-movie_run-03_bold.nii.gz",
    "func/sub-sid000030_task-movie_run-04_bold.nii.gz",
    "func/sub-sid000030_task-movie_run-05_bold.nii.gz"
  ],
  "MRAcquisitionType": "2D",
  "MagneticFieldStrength": 3,
  "Manufacturer": "Siemens",
  "ManufacturersModelName": "Prisma",
  "Modality": "MR",
  "PartialFourier": 1,
  "PatientPosition": "HFS",
  "PercentPhaseFOV": 100,
  "PhaseEncodingDirection": "j-",
  "PhaseEncodingSteps": 96,
  "PhaseResolution": 1,
  "PixelBandwidth": 590,
  "ProcedureStepDescription": "Gobbini_Matteo_1037_budapest",
  "ProtocolName": "fmap_acq-2.5mm",
  "PulseSequenceDetails": "%SiemensSeq%_gre_field_mapping",
  "ReceiveCoilActiveElements": "HEA;HEP",
  "ReceiveCoilName": "Head_32",
  "ReconMatrixPE": 96,
  "RepetitionTime": 0.675,
  "SAR": 0.0799921,
  "ScanningSequence": "GR",
  "SequenceName": "_fm2d2r",
  "SequenceVariant": "SP",
  "SeriesDescription": "fmap_acq-2.5mm",
  "SeriesNumber": 7,
  "ShimSetting": [
    4130,
    -7727,
    -7357,
    892,
    -25,
    -260,
    -13,
    183
  ],
  "SliceThickness": 2.5,
  "SliceTiming": [
    0.34375,
    0,
    0.35938,
    0.01562,
    0.375,
    0.03125,
    0.375,
    0.04688,
    0.39062,
    0.0625,
    0.40625,
    0.07812,
    0.42188,
    0.07812,
    0.4375,
    0.09375,
    0.45312,
    0.10938,
    0.46875,
    0.125,
    0.48438,
    0.14062,
    0.5,
    0.15625,
    0.5,
    0.17188,
    0.51562,
    0.1875,
    0.53125,
    0.20312,
    0.54688,
    0.21875,
    0.5625,
    0.23438,
    0.57812,
    0.23438,
    0.59375,
    0.25,
    0.60938,
    0.26562,
    0.625,
    0.28125,
    0.64062,
    0.29688,
    0.64062,
    0.3125,
    0.65625,
    0.32812
  ],
  "SoftwareVersions": "syngo_MR_E11",
  "SpacingBetweenSlices": 2.5,
  "StationName": "AWP66112",
  "TxRefAmp": 234.69,
  "dcmmeta_affine": [
    [
      -2.5,
      0.0,
      0.0,
      120.63999938964844
    ],
    [
      0.0,
      2.5,
      0.0,
      -110.45999908447266
    ],
    [
      6.0574999877216484e-12,
      -7.859999977266607e-12,
      2.500001907348633,
      -83.71009063720703
    ],
    [
      0.0,
      0.0,
      0.0,
      1.0
    ]
  ],
  "dcmmeta_reorient_transform": [
    [
      0.0,
      -1.0,
      0.0,
      95.0
    ],
    [
      1.0,
      0.0,
      0.0,
      0.0
    ],
    [
      0.0,
      0.0,
      -1.0,
      47.0
    ],
    [
      0.0,
      0.0,
      0.0,
      1.0
    ]
  ],
  "dcmmeta_shape": [
    96,
    96,
    48
  ],
  "dcmmeta_slice_dim": 2,
  "dcmmeta_version": 0.6,
  "global": {
    "const": {
      "AccessionNumber": "A001467",
      "AcquisitionMatrix": [
        96,
        0,
        0,
        96
      ],
      "AcquisitionNumber": 1,
      "AngioFlag": "N",
      "BitsAllocated": 16,
      "BitsStored": 12,
      "BodyPartExamined": "BRAIN",
      "Columns": 96,
      "EchoNumbers": 2,
      "EchoTime": 7.38,
      "EchoTrainLength": 0,
      "FlipAngle": 60.0,
      "HighBit": 11,
      "ImageOrientationPatient": [
        1.0,
        0.0,
        2.423e-12,
        0.0,
        1.0,
        3.144e-12
      ],
      "ImageType": [
        "ORIGINAL",
        "PRIMARY",
        "P",
        "ND"
      ],
      "ImagedNucleus": "1H",
      "ImagingFrequency": 123.25232,
      "InPlanePhaseEncodingDirection": "COL",
      "MRAcquisitionType": "2D",
      "MagneticFieldStrength": 3.0,
      "Manufacturer": "SIEMENS",
      "ManufacturerModelName": "Prisma",
      "Modality": "MR",
      "NumberOfAverages": 1.0,
      "NumberOfPhaseEncodingSteps": 96,
      "PercentPhaseFieldOfView": 100.0,
      "PercentSampling": 100.0,
      "PerformedProcedureStepStartTime": "180647.636000",
      "PhotometricInterpretation": "MONOCHROME2",
      "PixelBandwidth": 590.0,
      "PixelRepresentation": 0,
      "PixelSpacing": [
        2.5,
        2.5
      ],
      "ProtocolName": "fmap_acq-2.5mm",
      "RepetitionTime": 675.0,
      "RescaleIntercept": -4096.0,
      "RescaleSlope": 2.0,
      "RescaleType": "US",
      "Rows": 96,
      "SAR": 0.07999207106431,
      "SamplesPerPixel": 1,
      "ScanningSequence": "GR",
      "SequenceName": "*fm2d2r",
      "SequenceVariant": "SP",
      "SeriesDescription": "fmap_acq-2.5mm",
      "SeriesNumber": 7,
      "SeriesTime": "182336.040000",
      "SliceThickness": 2.5,
      "SoftwareVersions": "syngo MR E11",
      "SpacingBetweenSlices": 2.5,
      "SpecificCharacterSet": "ISO_IR 100",
      "StudyID": "1",
      "StudyTime": "180647.584000",
      "TransmitCoilName": "Body",
      "VariableFlipAngleFlag": "N",
      "WindowCenterWidthExplanation": "Algo1",
      "dBdt": 0.0
    },
    "slices": {
      "AcquisitionTime": [
        "182125.277500",
        "182124.940000",
        "182125.290000",
        "182124.952500",
        "182125.305000",
        "182124.967500",
        "182125.317500",
        "182124.980000",
        "182125.332500",
        "182124.995000",
        "182125.347500",
        "182125.010000",
        "182125.360000",
        "182125.022500",
        "182125.375000",
        "182125.037500",
        "182125.390000",
        "182125.052500",
        "182125.402500",
        "182125.065000",
        "182125.417500",
        "182125.080000",
        "182125.430000",
        "182125.092500",
        "182125.445000",
        "182125.107500",
        "182125.460000",
        "182125.122500",
        "182125.472500",
        "182125.135000",
        "182125.487500",
        "182125.150000",
        "182125.502500",
        "182125.165000",
        "182125.515000",
        "182125.177500",
        "182125.530000",
        "182125.192500",
        "182125.542500",
        "182125.205000",
        "182125.557500",
        "182125.220000",
        "182125.572500",
        "182125.235000",
        "182125.585000",
        "182125.247500",
        "182125.600000",
        "182125.262500"
      ],
      "ContentTime": [
        "182336.101000",
        "182336.042000",
        "182336.103000",
        "182336.045000",
        "182336.105000",
        "182336.053000",
        "182336.107000",
        "182336.055000",
        "182336.109000",
        "182336.057000",
        "182336.111000",
        "182336.059000",
        "182336.113000",
        "182336.061000",
        "182336.115000",
        "182336.064000",
        "182336.117000",
        "182336.066000",
        "182336.119000",
        "182336.068000",
        "182336.122000",
        "182336.070000",
        "182336.124000",
        "182336.072000",
        "182336.126000",
        "182336.074000",
        "182336.128000",
        "182336.076000",
        "182336.130000",
        "182336.078000",
        "182336.132000",
        "182336.080000",
        "182336.134000",
        "182336.082000",
        "182336.147000",
        "182336.084000",
        "182336.149000",
        "182336.086000",
        "182336.151000",
        "182336.089000",
        "182336.153000",
        "182336.092000",
        "182336.155000",
        "182336.094000",
        "182336.157000",
        "182336.096000",
        "182336.159000",
        "182336.098000"
      ],
      "CsaImage.ICE_Dims": [
        "X_2_1_1_1_1_1_25_1_1_1_1_30",
        "X_2_1_1_1_1_1_1_1_1_2_1_30",
        "X_2_1_1_1_1_1_26_1_1_3_1_30",
        "X_2_1_1_1_1_1_2_1_1_4_1_30",
        "X_2_1_1_1_1_1_27_1_1_5_1_30",
        "X_2_1_1_1_1_1_3_1_1_6_1_30",
        "X_2_1_1_1_1_1_28_1_1_7_1_30",
        "X_2_1_1_1_1_1_4_1_1_8_1_30",
        "X_2_1_1_1_1_1_29_1_1_9_1_30",
        "X_2_1_1_1_1_1_5_1_1_10_1_30",
        "X_2_1_1_1_1_1_30_1_1_11_1_30",
        "X_2_1_1_1_1_1_6_1_1_12_1_30",
        "X_2_1_1_1_1_1_31_1_1_13_1_30",
        "X_2_1_1_1_1_1_7_1_1_14_1_30",
        "X_2_1_1_1_1_1_32_1_1_15_1_30",
        "X_2_1_1_1_1_1_8_1_1_16_1_30",
        "X_2_1_1_1_1_1_33_1_1_17_1_30",
        "X_2_1_1_1_1_1_9_1_1_18_1_30",
        "X_2_1_1_1_1_1_34_1_1_19_1_30",
        "X_2_1_1_1_1_1_10_1_1_20_1_30",
        "X_2_1_1_1_1_1_35_1_1_21_1_30",
        "X_2_1_1_1_1_1_11_1_1_22_1_30",
        "X_2_1_1_1_1_1_36_1_1_23_1_30",
        "X_2_1_1_1_1_1_12_1_1_24_1_30",
        "X_2_1_1_1_1_1_37_1_1_25_1_30",
        "X_2_1_1_1_1_1_13_1_1_26_1_30",
        "X_2_1_1_1_1_1_38_1_1_27_1_30",
        "X_2_1_1_1_1_1_14_1_1_28_1_30",
        "X_2_1_1_1_1_1_39_1_1_29_1_30",
        "X_2_1_1_1_1_1_15_1_1_30_1_30",
        "X_2_1_1_1_1_1_40_1_1_31_1_30",
        "X_2_1_1_1_1_1_16_1_1_32_1_30",
        "X_2_1_1_1_1_1_41_1_1_33_1_30",
        "X_2_1_1_1_1_1_17_1_1_34_1_30",
        "X_2_1_1_1_1_1_42_1_1_35_1_30",
        "X_2_1_1_1_1_1_18_1_1_36_1_30",
        "X_2_1_1_1_1_1_43_1_1_37_1_30",
        "X_2_1_1_1_1_1_19_1_1_38_1_30",
        "X_2_1_1_1_1_1_44_1_1_39_1_30",
        "X_2_1_1_1_1_1_20_1_1_40_1_30",
        "X_2_1_1_1_1_1_45_1_1_41_1_30",
        "X_2_1_1_1_1_1_21_1_1_42_1_30",
        "X_2_1_1_1_1_1_46_1_1_43_1_30",
        "X_2_1_1_1_1_1_22_1_1_44_1_30",
        "X_2_1_1_1_1_1_47_1_1_45_1_30",
        "X_2_1_1_1_1_1_23_1_1_46_1_30",
        "X_2_1_1_1_1_1_48_1_1_47_1_30",
        "X_2_1_1_1_1_1_24_1_1_48_1_30"
      ],
      "CsaImage.ProtocolSliceNumber": [
        0,
        1,
        2,
        3,
        4,
        5,
        6,
        7,
        8,
        9,
        10,
        11,
        12,
        13,
        14,
        15,
        16,
        17,
        18,
        19,
        20,
        21,
        22,
        23,
        24,
        25,
        26,
        27,
        28,
        29,
        30,
        31,
        32,
        33,
        34,
        35,
        36,
        37,
        38,
        39,
        40,
        41,
        42,
        43,
        44,
        45,
        46,
        47
      ],
      "CsaImage.SlicePosition_PCS": [
        [
          -120.63999999,
          -127.03999996,
          -83.70999909
        ],
        [
          -120.63999999,
          -127.03999996,
          -81.20999909
        ],
        [
          -120.63999999,
          -127.03999996,
          -78.70999909
        ],
        [
          -120.63999999,
          -127.03999996,
          -76.20999909
        ],
        [
          -120.63999999,
          -127.03999996,
          -73.70999909
        ],
        [
          -120.63999999,
          -127.03999996,
          -71.20999909
        ],
        [
          -120.63999999,
          -127.03999996,
          -68.70999909
        ],
        [
          -120.63999999,
          -127.03999996,
          -66.20999909
        ],
        [
          -120.63999999,
          -127.03999996,
          -63.70999909
        ],
        [
          -120.63999999,
          -127.03999996,
          -61.20999909
        ],
        [
          -120.63999999,
          -127.03999996,
          -58.70999909
        ],
        [
          -120.63999999,
          -127.03999996,
          -56.20999909
        ],
        [
          -120.63999999,
          -127.03999996,
          -53.70999909
        ],
        [
          -120.63999999,
          -127.03999996,
          -51.20999909
        ],
        [
          -120.63999999,
          -127.03999996,
          -48.70999909
        ],
        [
          -120.63999999,
          -127.03999996,
          -46.20999909
        ],
        [
          -120.63999999,
          -127.03999996,
          -43.70999909
        ],
        [
          -120.63999999,
          -127.03999996,
          -41.20999909
        ],
        [
          -120.63999999,
          -127.03999996,
          -38.70999909
        ],
        [
          -120.63999999,
          -127.03999996,
          -36.20999909
        ],
        [
          -120.63999999,
          -127.03999996,
          -33.70999909
        ],
        [
          -120.63999999,
          -127.03999996,
          -31.21000099
        ],
        [
          -120.63999999,
          -127.03999996,
          -28.71000099
        ],
        [
          -120.63999999,
          -127.03999996,
          -26.21000099
        ],
        [
          -120.63999999,
          -127.03999996,
          -23.71000099
        ],
        [
          -120.63999999,
          -127.03999996,
          -21.21000099
        ],
        [
          -120.63999999,
          -127.03999996,
          -18.71000099
        ],
        [
          -120.63999999,
          -127.03999996,
          -16.21000099
        ],
        [
          -120.63999999,
          -127.03999996,
          -13.71000004
        ],
        [
          -120.63999999,
          -127.03999996,
          -11.21000004
        ],
        [
          -120.63999999,
          -127.03999996,
          -8.71000004
        ],
        [
          -120.63999999,
          -127.03999996,
          -6.21000052
        ],
        [
          -120.63999999,
          -127.03999996,
          -3.71000028
        ],
        [
          -120.63999999,
          -127.03999996,
          -1.2100004
        ],
        [
          -120.63999999,
          -127.03999996,
          1.2899996
        ],
        [
          -120.63999999,
          -127.03999996,
          3.78999972
        ],
        [
          -120.63999999,
          -127.03999996,
          6.28999948
        ],
        [
          -120.63999999,
          -127.03999996,
          8.78999996
        ],
        [
          -120.63999999,
          -127.03999996,
          11.28999996
        ],
        [
          -120.63999999,
          -127.03999996,
          13.78999996
        ],
        [
          -120.63999999,
          -127.03999996,
          16.28999901
        ],
        [
          -120.63999999,
          -127.03999996,
          18.78999901
        ],
        [
          -120.63999999,
          -127.03999996,
          21.28999901
        ],
        [
          -120.63999999,
          -127.03999996,
          23.78999901
        ],
        [
          -120.63999999,
          -127.03999996,
          26.28999901
        ],
        [
          -120.63999999,
          -127.03999996,
          28.78999901
        ],
        [
          -120.63999999,
          -127.03999996,
          31.28999901
        ],
        [
          -120.63999999,
          -127.03999996,
          33.79000091
        ]
      ],
      "CsaImage.TimeAfterStart": [
        1.015,
        0.6775,
        1.0275,
        0.69,
        1.0425,
        0.705,
        1.055,
        0.7175,
        1.07,
        0.7325,
        1.085,
        0.7475,
        1.0975,
        0.76,
        1.1125,
        0.775,
        1.1275,
        0.79,
        1.14,
        0.8025,
        1.155,
        0.8175,
        1.1675,
        0.83,
        1.1825,
        0.845,
        1.1975,
        0.86,
        1.21,
        0.8725,
        1.225,
        0.8875,
        1.24,
        0.9025,
        1.2525,
        0.915,
        1.2675,
        0.93,
        1.28,
        0.9425,
        1.295,
        0.9575,
        1.31,
        0.9725,
        1.3225,
        0.985,
        1.3375,
        1.0
      ],
      "ImagePositionPatient": [
        [
          -120.63999998569,
          -127.03999996185,
          -83.709999085141
        ],
        [
          -120.63999998569,
          -127.03999996185,
          -81.209999085141
        ],
        [
          -120.63999998569,
          -127.03999996185,
          -78.709999085141
        ],
        [
          -120.63999998569,
          -127.03999996185,
          -76.209999085141
        ],
        [
          -120.63999998569,
          -127.03999996185,
          -73.709999085141
        ],
        [
          -120.63999998569,
          -127.03999996185,
          -71.209999085141
        ],
        [
          -120.63999998569,
          -127.03999996185,
          -68.709999085141
        ],
        [
          -120.63999998569,
          -127.03999996185,
          -66.209999085141
        ],
        [
          -120.63999998569,
          -127.03999996185,
          -63.709999085141
        ],
        [
          -120.63999998569,
          -127.03999996185,
          -61.209999085141
        ],
        [
          -120.63999998569,
          -127.03999996185,
          -58.709999085141
        ],
        [
          -120.63999998569,
          -127.03999996185,
          -56.209999085141
        ],
        [
          -120.63999998569,
          -127.03999996185,
          -53.709999085141
        ],
        [
          -120.63999998569,
          -127.03999996185,
          -51.209999085141
        ],
        [
          -120.63999998569,
          -127.03999996185,
          -48.709999085141
        ],
        [
          -120.63999998569,
          -127.03999996185,
          -46.209999085141
        ],
        [
          -120.63999998569,
          -127.03999996185,
          -43.709999085141
        ],
        [
          -120.63999998569,
          -127.03999996185,
          -41.209999085141
        ],
        [
          -120.63999998569,
          -127.03999996185,
          -38.709999085141
        ],
        [
          -120.63999998569,
          -127.03999996185,
          -36.209999085141
        ],
        [
          -120.63999998569,
          -127.03999996185,
          -33.709999085141
        ],
        [
          -120.63999998569,
          -127.03999996185,
          -31.210000992489
        ],
        [
          -120.63999998569,
          -127.03999996185,
          -28.710000992489
        ],
        [
          -120.63999998569,
          -127.03999996185,
          -26.210000992489
        ],
        [
          -120.63999998569,
          -127.03999996185,
          -23.710000992489
        ],
        [
          -120.63999998569,
          -127.03999996185,
          -21.210000992489
        ],
        [
          -120.63999998569,
          -127.03999996185,
          -18.710000992489
        ],
        [
          -120.63999998569,
          -127.03999996185,
          -16.210000992489
        ],
        [
          -120.63999998569,
          -127.03999996185,
          -13.710000038815
        ],
        [
          -120.63999998569,
          -127.03999996185,
          -11.210000038815
        ],
        [
          -120.63999998569,
          -127.03999996185,
          -8.710000038815
        ],
        [
          -120.63999998569,
          -127.03999996185,
          -6.2100005156522
        ],
        [
          -120.63999998569,
          -127.03999996185,
          -3.7100002772336
        ],
        [
          -120.63999998569,
          -127.03999996185,
          -1.2100003964429
        ],
        [
          -120.63999998569,
          -127.03999996185,
          1.2899996035571
        ],
        [
          -120.63999998569,
          -127.03999996185,
          3.7899997227664
        ],
        [
          -120.63999998569,
          -127.03999996185,
          6.2899994843478
        ],
        [
          -120.63999998569,
          -127.03999996185,
          8.789999961185
        ],
        [
          -120.63999998569,
          -127.03999996185,
          11.289999961185
        ],
        [
          -120.63999998569,
          -127.03999996185,
          13.789999961185
        ],
        [
          -120.63999998569,
          -127.03999996185,
          16.289999007511
        ],
        [
          -120.63999998569,
          -127.03999996185,
          18.789999007511
        ],
        [
          -120.63999998569,
          -127.03999996185,
          21.289999007511
        ],
        [
          -120.63999998569,
          -127.03999996185,
          23.789999007511
        ],
        [
          -120.63999998569,
          -127.03999996185,
          26.289999007511
        ],
        [
          -120.63999998569,
          -127.03999996185,
          28.789999007511
        ],
        [
          -120.63999998569,
          -127.03999996185,
          31.289999007511
        ],
        [
          -120.63999998569,
          -127.03999996185,
          33.790000914859
        ]
      ],
      "InstanceCreationTime": [
        "182336.101000",
        "182336.042000",
        "182336.103000",
        "182336.045000",
        "182336.105000",
        "182336.053000",
        "182336.107000",
        "182336.055000",
        "182336.109000",
        "182336.057000",
        "182336.111000",
        "182336.059000",
        "182336.113000",
        "182336.061000",
        "182336.115000",
        "182336.064000",
        "182336.117000",
        "182336.066000",
        "182336.119000",
        "182336.068000",
        "182336.122000",
        "182336.070000",
        "182336.124000",
        "182336.072000",
        "182336.126000",
        "182336.074000",
        "182336.128000",
        "182336.076000",
        "182336.130000",
        "182336.078000",
        "182336.132000",
        "182336.080000",
        "182336.134000",
        "182336.082000",
        "182336.147000",
        "182336.084000",
        "182336.149000",
        "182336.086000",
        "182336.151000",
        "182336.089000",
        "182336.153000",
        "182336.092000",
        "182336.155000",
        "182336.094000",
        "182336.157000",
        "182336.096000",
        "182336.159000",
        "182336.098000"
      ],
      "InstanceNumber": [
        1,
        2,
        3,
        4,
        5,
        6,
        7,
        8,
        9,
        10,
        11,
        12,
        13,
        14,
        15,
        16,
        17,
        18,
        19,
        20,
        21,
        22,
        23,
        24,
        25,
        26,
        27,
        28,
        29,
        30,
        31,
        32,
        33,
        34,
        35,
        36,
        37,
        38,
        39,
        40,
        41,
        42,
        43,
        44,
        45,
        46,
        47,
        48
      ],
      "LargestImagePixelValue": [
        4093,
        4095,
        4095,
        4094,
        4094,
        4094,
        4093,
        4093,
        4094,
        4095,
        4093,
        4092,
        4095,
        4094,
        4091,
        4095,
        4092,
        4094,
        4094,
        4092,
        4091,
        4094,
        4090,
        4095,
        4093,
        4091,
        4091,
        4094,
        4091,
        4091,
        4092,
        4092,
        4090,
        4093,
        4091,
        4093,
        4094,
        4095,
        4094,
        4095,
        4095,
        4093,
        4094,
        4094,
        4094,
        4095,
        4095,
        4094
      ],
      "SliceLocation": [
        -83.709999084449,
        -81.209999084449,
        -78.709999084449,
        -76.209999084449,
        -73.709999084449,
        -71.209999084449,
        -68.709999084449,
        -66.209999084449,
        -63.709999084449,
        -61.209999084449,
        -58.709999084449,
        -56.209999084449,
        -53.709999084449,
        -51.209999084449,
        -48.709999084449,
        -46.209999084449,
        -43.709999084449,
        -41.209999084449,
        -38.709999084449,
        -36.209999084449,
        -33.709999084449,
        -31.210000991798,
        -28.710000991798,
        -26.210000991798,
        -23.710000991798,
        -21.210000991798,
        -18.710000991798,
        -16.210000991798,
        -13.710000038123,
        -11.210000038123,
        -8.7100000381233,
        -6.2100005149604,
        -3.7100002765419,
        -1.2100003957512,
        1.2899996042488,
        3.7899997234581,
        6.2899994850396,
        8.7899999618767,
        11.289999961877,
        13.789999961877,
        16.289999008202,
        18.789999008202,
        21.289999008202,
        23.789999008202,
        26.289999008202,
        28.789999008202,
        31.289999008202,
        33.790000915551
      ],
      "SmallestImagePixelValue": [
        0,
        0,
        0,
        0,
        0,
        0,
        0,
        0,
        0,
        0,
        0,
        2,
        0,
        0,
        4,
        1,
        0,
        0,
        0,
        0,
        5,
        11,
        0,
        1,
        2,
        0,
        0,
        0,
        0,
        1,
        0,
        1,
        1,
        4,
        0,
        0,
        1,
        0,
        0,
        1,
        4,
        0,
        0,
        1,
        0,
        2,
        0,
        1
      ],
      "WindowCenter": [
        -220.0,
        -300.0,
        -194.0,
        -198.0,
        -198.0,
        -132.0,
        -28.0,
        -134.0,
        -166.0,
        -248.0,
        -280.0,
        -264.0,
        -266.0,
        -388.0,
        -224.0,
        -220.0,
        -206.0,
        -194.0,
        -214.0,
        -184.0,
        -158.0,
        -118.0,
        -132.0,
        -104.0,
        -88.0,
        -86.0,
        -94.0,
        -78.0,
        -44.0,
        -80.0,
        -96.0,
        -106.0,
        -56.0,
        -62.0,
        -66.0,
        -42.0,
        -76.0,
        -76.0,
        -104.0,
        -112.0,
        -162.0,
        -244.0,
        -228.0,
        -276.0,
        -274.0,
        -256.0,
        -270.0,
        -342.0
      ],
      "WindowWidth": [
        6252.0,
        6512.0,
        6426.0,
        6454.0,
        6470.0,
        6498.0,
        6404.0,
        6200.0,
        6126.0,
        6008.0,
        5990.0,
        5850.0,
        5756.0,
        4826.0,
        5714.0,
        5642.0,
        5670.0,
        5592.0,
        5658.0,
        5540.0,
        5642.0,
        5578.0,
        5566.0,
        5520.0,
        5520.0,
        5510.0,
        5456.0,
        5460.0,
        5566.0,
        5498.0,
        5594.0,
        5610.0,
        5696.0,
        5654.0,
        5698.0,
        5724.0,
        5702.0,
        5666.0,
        5604.0,
        5754.0,
        5686.0,
        5920.0,
        5858.0,
        5936.0,
        6008.0,
        6172.0,
        6288.0,
        6364.0
      ]
    }
  }
}