{
  "AcquisitionMatrixPE": 96,
  "AcquisitionNumber": 1,
  "AcquisitionTime": "20:03:36.015000",
  "BandwidthPerPixelPhaseEncode": 18.939,
  "BaseResolution": 96,
  "BodyPartExamined": "BRAIN",
  "ConsistencyInfo": "N4_VE11C_LATEST_20160120",
  "ConversionSoftware": "dcm2niix",
  "ConversionSoftwareVersion": "v1.0.20190902",
  "DerivedVendorReportedEchoSpacing": 0.000550011,
  "DeviceSerialNumber": "66112",
  "DwellTime": 2.2e-06,
  "EchoTime": 0.033,
  "EchoTrainLength": 96,
  "EffectiveEchoSpacing": 0.000550011,
  "FlipAngle": 59,
  "ImageOrientationPatientDICOM": [0.998602, 0.0414864, 0.0327606, -0.0376643, 0.993248, -0.109725],
  "ImageType": [
    "ORIGINAL",
    "PRIMARY",
    "FMRI",
    "NONE",
    "ND",
    "NORM",
    "MOSAIC"
],
  "ImagingFrequency": 123.252,
  "InPlanePhaseEncodingDirectionDICOM": "COL",
  "InstitutionAddress": "Maynard_3_Hanover_NH_US_03755",
  "InstitutionName": "Dartmouth_College_-_PBS",
  "InstitutionalDepartmentName": "Department",
  "MRAcquisitionType": "2D",
  "MagneticFieldStrength": 3,
  "Manufacturer": "Siemens",
  "ManufacturersModelName": "Prisma",
  "Modality": "MR",
  "MultibandAccelerationFactor": 4,
  "PartialFourier": 1,
  "PatientPosition": "HFS",
  "PercentPhaseFOV": 100,
  "PhaseEncodingDirection": "j-",
  "PhaseEncodingSteps": 96,
  "PhaseResolution": 1,
  "PixelBandwidth": 2365,
  "ProcedureStepDescription": "Gobbini_Matteo_1037_budapest",
  "ProtocolName": "func_run-05_task-movie",
  "PulseSequenceDetails": "%SiemensSeq%_ep2d_bold",
  "ReceiveCoilActiveElements": "HEA;HEP",
  "ReceiveCoilName": "Head_32",
  "ReconMatrixPE": 96,
  "RefLinesPE": 12,
  "RepetitionTime": 1,
  "SAR": 0.0546627,
  "ScanOptions": "FS",
  "ScanningSequence": "EP",
  "SequenceName": "_epfid2d1_96",
  "SequenceVariant": "SK",
  "SeriesDescription": "func_run-05_task-movie",
  "SeriesNumber": 36,
  "ShimSetting": [4147, -7693, -7400, 656, 46, -145, -43, 30],
  "SliceThickness": 2.5,
  "SliceTiming": [0.735, 0, 0.49, 0.08, 0.57, 0.1625, 0.6525, 0.325, 0.815, 0.4075, 0.8975, 0.245, 0.735, 0, 0.49, 0.08, 0.57, 0.1625, 0.6525, 0.325, 0.815, 0.4075, 0.8975, 0.245, 0.735, 0, 0.49, 0.08, 0.57, 0.1625, 0.6525, 0.325, 0.815, 0.4075, 0.8975, 0.245, 0.735, 0, 0.49, 0.08, 0.57, 0.1625, 0.6525, 0.325, 0.815, 0.4075, 0.8975, 0.245],
  "SoftwareVersions": "syngo_MR_E11",
  "SpacingBetweenSlices": 2.5,
  "StationName": "AWP66112",
  "TaskName": "movie",
  "TotalReadoutTime": 0.0522511,
  "TxRefAmp": 248.108,
  "dcmmeta_affine": [
    [-2.496504545211792, -0.09416069090366364, 0.0927286222577095, 126.517333984375],
    [-0.1037159189581871, 2.4831204414367676, -0.2708432376384735, -100.87934112548828],
    [0.0819014236330986, 0.27431154251098633, 2.4835548400878906, -117.82860565185547],
    [0.0, 0.0, 0.0, 1.0]
],
  "dcmmeta_reorient_transform": [
    [0.0, -1.0, 0.0, 95.0],
    [1.0, 0.0, 0.0, 0.0],
    [0.0, 0.0, 1.0, 0.0],
    [0.0, 0.0, 0.0, 1.0]
],
  "dcmmeta_shape": [96, 96, 48, 803],
  "dcmmeta_slice_dim": 2,
  "dcmmeta_version": 0.6,
  "global": {
    "const": {
      "AccessionNumber": "A001331",
      "AcquisitionMatrix": [96, 0, 0, 96],
      "AngioFlag": "N",
      "BitsAllocated": 16,
      "BitsStored": 12,
      "BodyPartExamined": "BRAIN",
      "Columns": 672,
      "EchoNumbers": 1,
      "EchoTime": 33.0,
      "EchoTrainLength": 96,
      "FlipAngle": 59.0,
      "HighBit": 11,
      "ImageOrientationPatient": [0.99860183580346, 0.0414863670961, 0.03276056890734, -0.0376642777461, 0.99324816142386, -0.1097246189786],
      "ImagePositionPatient": [-809.44710649218, -880.02595815751, -36.354890017783],
      "ImageType": [
        "ORIGINAL",
        "PRIMARY",
        "FMRI",
        "NONE",
        "ND",
        "NORM",
        "MOSAIC"
],
      "ImagedNucleus": "1H",
      "ImagingFrequency": 123.252336,
      "InPlanePhaseEncodingDirection": "COL",
      "MRAcquisitionType": "2D",
      "MagneticFieldStrength": 3.0,
      "Manufacturer": "SIEMENS",
      "ManufacturerModelName": "Prisma",
      "Modality": "MR",
      "NumberOfAverages": 1.0,
      "NumberOfPhaseEncodingSteps": 96,
      "PercentPhaseFieldOfView": 100.0,
      "PercentSampling": 100.0,
      "PerformedProcedureStepStartTime": "185247.292000",
      "PhotometricInterpretation": "MONOCHROME2",
      "PixelBandwidth": 2365.0,
      "PixelRepresentation": 0,
      "PixelSpacing": [2.5, 2.5],
      "ProtocolName": "func_run-05_task-movie",
      "RepetitionTime": 1000.0,
      "Rows": 672,
      "SAR": 0.05466271949055,
      "SamplesPerPixel": 1,
      "ScanOptions": "FS",
      "ScanningSequence": "EP",
      "SequenceName": "*epfid2d1_96",
      "SequenceVariant": "SK",
      "SeriesDescription": "func_run-05_task-movie",
      "SeriesNumber": 36,
      "SeriesTime": "200337.730000",
      "SliceLocation": -101.43181851274,
      "SliceThickness": 2.5,
      "SmallestImagePixelValue": 0,
      "SoftwareVersions": "syngo MR E11",
      "SpacingBetweenSlices": 2.4999999236231,
      "SpecificCharacterSet": "ISO_IR 100",
      "StudyID": "1",
      "StudyTime": "185247.245000",
      "TransmitCoilName": "Body",
      "VariableFlipAngleFlag": "N",
      "WindowCenterWidthExplanation": "Algo1",
      "dBdt": 0.0},
    "slices": {}
  },
  "time": {
    "samples": {
      "AcquisitionNumber": [1, 2, 3, 4, 5, 6, 7, 8, 9, 10, 11, 12, 13, 14, 15, 16, 17, 18, 19, 20, 21, 22, 23, 24, 25, 26, 27, 28, 29, 30, 31, 32, 33, 34, 35, 36, 37, 38, 39, 40, 41, 42, 43, 44, 45, 46, 47, 48, 49, 50, 51, 52, 53, 54, 55, 56, 57, 58, 59, 60, 61, 62, 63, 64, 65, 66, 67, 68, 69, 70, 71, 72, 73, 74, 75, 76, 77, 78, 79, 80, 81, 82, 83, 84, 85, 86, 87, 88, 89, 90, 91, 92, 93, 94, 95, 96, 97, 98, 99, 100, 101, 102, 103, 104, 105, 106, 107, 108, 109, 110, 111, 112, 113, 114, 115, 116, 117, 118, 119, 120, 121, 122, 123, 124, 125, 126, 127, 128, 129, 130, 131, 132, 133, 134, 135, 136, 137, 138, 139, 140, 141, 142, 143, 144, 145, 146, 147, 148, 149, 150, 151, 152, 153, 154, 155, 156, 157, 158, 159, 160, 161, 162, 163, 164, 165, 166, 167, 168, 169, 170, 171, 172, 173, 174, 175, 176, 177, 178, 179, 180, 181, 182, 183, 184, 185, 186, 187, 188, 189, 190, 191, 192, 193, 194, 195, 196, 197, 198, 199, 200, 201, 202, 203, 204, 205, 206, 207, 208, 209, 210, 211, 212, 213, 214, 215, 216, 217, 218, 219, 220, 221, 222, 223, 224, 225, 226, 227, 228, 229, 230, 231, 232, 233, 234, 235, 236, 237, 238, 239, 240, 241, 242, 243, 244, 245, 246, 247, 248, 249, 250, 251, 252, 253, 254, 255, 256, 257, 258, 259, 260, 261, 262, 263, 264, 265, 266, 267, 268, 269, 270, 271, 272, 273, 274, 275, 276, 277, 278, 279, 280, 281, 282, 283, 284, 285, 286, 287, 288, 289, 290, 291, 292, 293, 294, 295, 296, 297, 298, 299, 300, 301, 302, 303, 304, 305, 306, 307, 308, 309, 310, 311, 312, 313, 314, 315, 316, 317, 318, 319, 320, 321, 322, 323, 324, 325, 326, 327, 328, 329, 330, 331, 332, 333, 334, 335, 336, 337, 338, 339, 340, 341, 342, 343, 344, 345, 346, 347, 348, 349, 350, 351, 352, 353, 354, 355, 356, 357, 358, 359, 360, 361, 362, 363, 364, 365, 366, 367, 368, 369, 370, 371, 372, 373, 374, 375, 376, 377, 378, 379, 380, 381, 382, 383, 384, 385, 386, 387, 388, 389, 390, 391, 392, 393, 394, 395, 396, 397, 398, 399, 400, 401, 402, 403, 404, 405, 406, 407, 408, 409, 410, 411, 412, 413, 414, 415, 416, 417, 418, 419, 420, 421, 422, 423, 424, 425, 426, 427, 428, 429, 430, 431, 432, 433, 434, 435, 436, 437, 438, 439, 440, 441, 442, 443, 444, 445, 446, 447, 448, 449, 450, 451, 452, 453, 454, 455, 456, 457, 458, 459, 460, 461, 462, 463, 464, 465, 466, 467, 468, 469, 470, 471, 472, 473, 474, 475, 476, 477, 478, 479, 480, 481, 482, 483, 484, 485, 486, 487, 488, 489, 490, 491, 492, 493, 494, 495, 496, 497, 498, 499, 500, 501, 502, 503, 504, 505, 506, 507, 508, 509, 510, 511, 512, 513, 514, 515, 516, 517, 518, 519, 520, 521, 522, 523, 524, 525, 526, 527, 528, 529, 530, 531, 532, 533, 534, 535, 536, 537, 538, 539, 540, 541, 542, 543, 544, 545, 546, 547, 548, 549, 550, 551, 552, 553, 554, 555, 556, 557, 558, 559, 560, 561, 562, 563, 564, 565, 566, 567, 568, 569, 570, 571, 572, 573, 574, 575, 576, 577, 578, 579, 580, 581, 582, 583, 584, 585, 586, 587, 588, 589, 590, 591, 592, 593, 594, 595, 596, 597, 598, 599, 600, 601, 602, 603, 604, 605, 606, 607, 608, 609, 610, 611, 612, 613, 614, 615, 616, 617, 618, 619, 620, 621, 622, 623, 624, 625, 626, 627, 628, 629, 630, 631, 632, 633, 634, 635, 636, 637, 638, 639, 640, 641, 642, 643, 644, 645, 646, 647, 648, 649, 650, 651, 652, 653, 654, 655, 656, 657, 658, 659, 660, 661, 662, 663, 664, 665, 666, 667, 668, 669, 670, 671, 672, 673, 674, 675, 676, 677, 678, 679, 680, 681, 682, 683, 684, 685, 686, 687, 688, 689, 690, 691, 692, 693, 694, 695, 696, 697, 698, 699, 700, 701, 702, 703, 704, 705, 706, 707, 708, 709, 710, 711, 712, 713, 714, 715, 716, 717, 718, 719, 720, 721, 722, 723, 724, 725, 726, 727, 728, 729, 730, 731, 732, 733, 734, 735, 736, 737, 738, 739, 740, 741, 742, 743, 744, 745, 746, 747, 748, 749, 750, 751, 752, 753, 754, 755, 756, 757, 758, 759, 760, 761, 762, 763, 764, 765, 766, 767, 768, 769, 770, 771, 772, 773, 774, 775, 776, 777, 778, 779, 780, 781, 782, 783, 784, 785, 786, 787, 788, 789, 790, 791, 792, 793, 794, 795, 796, 797, 798, 799, 800, 801, 802, 803],
      "AcquisitionTime": ["200336.015000", "200337.015000", "200338.015000", "200339.015000", "200340.015000", "200341.015000", "200342.015000", "200343.015000", "200344.015000", "200345.015000", "200346.015000", "200347.015000", "200348.015000", "200349.015000", "200350.015000", "200351.015000", "200352.015000", "200353.015000", "200354.015000", "200355.015000", "200356.015000", "200357.015000", "200358.015000", "200359.015000", "200400.015000", "200401.015000", "200402.015000", "200403.015000", "200404.015000", "200405.015000", "200406.015000", "200407.015000", "200408.015000", "200409.015000", "200410.015000", "200411.015000", "200412.015000", "200413.015000", "200414.015000", "200415.015000", "200416.015000", "200417.015000", "200418.015000", "200419.015000", "200420.015000", "200421.015000", "200422.015000", "200423.015000", "200424.015000", "200425.015000", "200426.015000", "200427.015000", "200428.015000", "200429.015000", "200430.015000", "200431.015000", "200432.015000", "200433.015000", "200434.015000", "200435.015000", "200436.015000", "200437.015000", "200438.015000", "200439.015000", "200440.015000", "200441.015000", "200442.015000", "200443.015000", "200444.015000", "200445.015000", "200446.015000", "200447.015000", "200448.015000", "200449.015000", "200450.015000", "200451.015000", "200452.015000", "200453.015000", "200454.015000", "200455.015000", "200456.015000", "200457.015000", "200458.015000", "200459.015000", "200500.015000", "200501.015000", "200502.015000", "200503.015000", "200504.015000", "200505.015000", "200506.015000", "200507.015000", "200508.015000", "200509.015000", "200510.015000", "200511.015000", "200512.015000", "200513.015000", "200514.015000", "200515.015000", "200516.015000", "200517.015000", "200518.015000", "200519.015000", "200520.015000", "200521.015000", "200522.015000", "200523.015000", "200524.015000", "200525.015000", "200526.015000", "200527.015000", "200528.015000", "200529.015000", "200530.015000", "200531.015000", "200532.015000", "200533.015000", "200534.015000", "200535.015000", "200536.015000", "200537.015000", "200538.015000", "200539.015000", "200540.015000", "200541.015000", "200542.015000", "200543.015000", "200544.015000", "200545.015000", "200546.015000", "200547.015000", "200548.015000", "200549.015000", "200550.015000", "200551.015000", "200552.015000", "200553.015000", "200554.015000", "200555.015000", "200556.015000", "200557.015000", "200558.015000", "200559.015000", "200600.015000", "200601.015000", "200602.015000", "200603.015000", "200604.015000", "200605.015000", "200606.015000", "200607.015000", "200608.015000", "200609.015000", "200610.015000", "200611.015000", "200612.015000", "200613.015000", "200614.015000", "200615.015000", "200616.015000", "200617.015000", "200618.015000", "200619.015000", "200620.015000", "200621.015000", "200622.015000", "200623.015000", "200624.015000", "200625.015000", "200626.015000", "200627.015000", "200628.015000", "200629.015000", "200630.015000", "200631.015000", "200632.015000", "200633.015000", "200634.015000", "200635.015000", "200636.015000", "200637.015000", "200638.015000", "200639.015000", "200640.015000", "200641.015000", "200642.015000", "200643.015000", "200644.015000", "200645.015000", "200646.015000", "200647.015000", "200648.015000", "200649.015000", "200650.015000", "200651.015000", "200652.015000", "200653.015000", "200654.015000", "200655.015000", "200656.015000", "200657.015000", "200658.015000", "200659.015000", "200700.015000", "200701.015000", "200702.015000", "200703.015000", "200704.015000", "200705.015000", "200706.015000", "200707.015000", "200708.015000", "200709.015000", "200710.015000", "200711.015000", "200712.015000", "200713.015000", "200714.015000", "200715.015000", "200716.015000", "200717.015000", "200718.015000", "200719.015000", "200720.015000", "200721.015000", "200722.015000", "200723.015000", "200724.015000", "200725.015000", "200726.015000", "200727.015000", "200728.015000", "200729.015000", "200730.015000", "200731.015000", "200732.015000", "200733.015000", "200734.015000", "200735.015000", "200736.015000", "200737.015000", "200738.015000", "200739.015000", "200740.015000", "200741.015000", "200742.015000", "200743.015000", "200744.015000", "200745.015000", "200746.015000", "200747.015000", "200748.015000", "200749.015000", "200750.015000", "200751.015000", "200752.015000", "200753.015000", "200754.015000", "200755.015000", "200756.015000", "200757.015000", "200758.015000", "200759.015000", "200800.015000", "200801.015000", "200802.015000", "200803.015000", "200804.015000", "200805.015000", "200806.015000", "200807.015000", "200808.015000", "200809.015000", "200810.015000", "200811.015000", "200812.015000", "200813.015000", "200814.015000", "200815.015000", "200816.015000", "200817.015000", "200818.015000", "200819.015000", "200820.015000", "200821.015000", "200822.015000", "200823.015000", "200824.015000", "200825.015000", "200826.015000", "200827.015000", "200828.015000", "200829.015000", "200830.015000", "200831.015000", "200832.015000", "200833.015000", "200834.015000", "200835.015000", "200836.015000", "200837.015000", "200838.015000", "200839.015000", "200840.015000", "200841.015000", "200842.015000", "200843.015000", "200844.015000", "200845.015000", "200846.015000", "200847.015000", "200848.015000", "200849.015000", "200850.015000", "200851.015000", "200852.015000", "200853.015000", "200854.015000", "200855.015000", "200856.015000", "200857.015000", "200858.015000", "200859.015000", "200900.015000", "200901.015000", "200902.015000", "200903.015000", "200904.015000", "200905.015000", "200906.015000", "200907.015000", "200908.015000", "200909.015000", "200910.015000", "200911.015000", "200912.015000", "200913.015000", "200914.015000", "200915.015000", "200916.015000", "200917.015000", "200918.015000", "200919.015000", "200920.015000", "200921.015000", "200922.015000", "200923.015000", "200924.015000", "200925.015000", "200926.015000", "200927.015000", "200928.015000", "200929.015000", "200930.015000", "200931.015000", "200932.015000", "200933.015000", "200934.015000", "200935.015000", "200936.015000", "200937.015000", "200938.015000", "200939.015000", "200940.015000", "200941.015000", "200942.015000", "200943.015000", "200944.015000", "200945.015000", "200946.015000", "200947.015000", "200948.015000", "200949.015000", "200950.015000", "200951.015000", "200952.015000", "200953.015000", "200954.015000", "200955.015000", "200956.015000", "200957.015000", "200958.015000", "200959.015000", "201000.015000", "201001.015000", "201002.015000", "201003.015000", "201004.015000", "201005.015000", "201006.015000", "201007.015000", "201008.015000", "201009.015000", "201010.015000", "201011.015000", "201012.015000", "201013.015000", "201014.015000", "201015.015000", "201016.015000", "201017.015000", "201018.015000", "201019.015000", "201020.015000", "201021.015000", "201022.015000", "201023.015000", "201024.015000", "201025.015000", "201026.015000", "201027.015000", "201028.015000", "201029.015000", "201030.015000", "201031.015000", "201032.015000", "201033.015000", "201034.015000", "201035.015000", "201036.015000", "201037.015000", "201038.015000", "201039.015000", "201040.015000", "201041.015000", "201042.015000", "201043.015000", "201044.015000", "201045.015000", "201046.015000", "201047.015000", "201048.015000", "201049.015000", "201050.015000", "201051.015000", "201052.015000", "201053.015000", "201054.015000", "201055.015000", "201056.015000", "201057.015000", "201058.015000", "201059.015000", "201100.015000", "201101.015000", "201102.015000", "201103.015000", "201104.015000", "201105.015000", "201106.015000", "201107.015000", "201108.015000", "201109.015000", "201110.015000", "201111.015000", "201112.015000", "201113.015000", "201114.015000", "201115.015000", "201116.015000", "201117.015000", "201118.015000", "201119.015000", "201120.015000", "201121.015000", "201122.015000", "201123.015000", "201124.015000", "201125.015000", "201126.015000", "201127.015000", "201128.015000", "201129.015000", "201130.015000", "201131.015000", "201132.015000", "201133.015000", "201134.015000", "201135.015000", "201136.015000", "201137.015000", "201138.015000", "201139.015000", "201140.015000", "201141.015000", "201142.015000", "201143.015000", "201144.015000", "201145.015000", "201146.015000", "201147.015000", "201148.015000", "201149.015000", "201150.015000", "201151.015000", "201152.015000", "201153.015000", "201154.015000", "201155.015000", "201156.015000", "201157.015000", "201158.015000", "201159.015000", "201200.015000", "201201.015000", "201202.015000", "201203.015000", "201204.015000", "201205.015000", "201206.015000", "201207.015000", "201208.015000", "201209.015000", "201210.015000", "201211.015000", "201212.015000", "201213.015000", "201214.015000", "201215.015000", "201216.015000", "201217.015000", "201218.015000", "201219.015000", "201220.015000", "201221.015000", "201222.015000", "201223.015000", "201224.015000", "201225.015000", "201226.015000", "201227.015000", "201228.015000", "201229.015000", "201230.015000", "201231.015000", "201232.015000", "201233.015000", "201234.015000", "201235.015000", "201236.015000", "201237.015000", "201238.015000", "201239.015000", "201240.015000", "201241.015000", "201242.015000", "201243.015000", "201244.015000", "201245.015000", "201246.015000", "201247.015000", "201248.015000", "201249.015000", "201250.015000", "201251.015000", "201252.015000", "201253.015000", "201254.015000", "201255.015000", "201256.015000", "201257.015000", "201258.015000", "201259.015000", "201300.015000", "201301.015000", "201302.015000", "201303.015000", "201304.015000", "201305.015000", "201306.015000", "201307.015000", "201308.015000", "201309.015000", "201310.015000", "201311.015000", "201312.015000", "201313.015000", "201314.015000", "201315.015000", "201316.015000", "201317.015000", "201318.015000", "201319.015000", "201320.015000", "201321.015000", "201322.015000", "201323.015000", "201324.015000", "201325.015000", "201326.015000", "201327.015000", "201328.015000", "201329.015000", "201330.015000", "201331.015000", "201332.015000", "201333.015000", "201334.015000", "201335.015000", "201336.015000", "201337.015000", "201338.015000", "201339.015000", "201340.015000", "201341.015000", "201342.015000", "201343.015000", "201344.015000", "201345.015000", "201346.015000", "201347.015000", "201348.015000", "201349.015000", "201350.015000", "201351.015000", "201352.015000", "201353.015000", "201354.015000", "201355.015000", "201356.015000", "201357.015000", "201358.015000", "201359.015000", "201400.015000", "201401.015000", "201402.015000", "201403.015000", "201404.015000", "201405.015000", "201406.015000", "201407.015000", "201408.015000", "201409.015000", "201410.015000", "201411.015000", "201412.015000", "201413.015000", "201414.015000", "201415.015000", "201416.015000", "201417.015000", "201418.015000", "201419.015000", "201420.015000", "201421.015000", "201422.015000", "201423.015000", "201424.015000", "201425.015000", "201426.015000", "201427.015000", "201428.015000", "201429.015000", "201430.015000", "201431.015000", "201432.015000", "201433.015000", "201434.015000", "201435.015000", "201436.015000", "201437.015000", "201438.015000", "201439.015000", "201440.015000", "201441.015000", "201442.015000", "201443.015000", "201444.015000", "201445.015000", "201446.015000", "201447.015000", "201448.015000", "201449.015000", "201450.015000", "201451.015000", "201452.015000", "201453.015000", "201454.015000", "201455.015000", "201456.015000", "201457.015000", "201458.015000", "201459.015000", "201500.015000", "201501.015000", "201502.015000", "201503.015000", "201504.015000", "201505.015000", "201506.015000", "201507.015000", "201508.015000", "201509.015000", "201510.015000", "201511.015000", "201512.015000", "201513.015000", "201514.015000", "201515.015000", "201516.015000", "201517.015000", "201518.015000", "201519.015000", "201520.015000", "201521.015000", "201522.015000", "201523.015000", "201524.015000", "201525.015000", "201526.015000", "201527.015000", "201528.015000", "201529.015000", "201530.015000", "201531.015000", "201532.015000", "201533.015000", "201534.015000", "201535.015000", "201536.015000", "201537.015000", "201538.015000", "201539.015000", "201540.015000", "201541.015000", "201542.015000", "201543.015000", "201544.015000", "201545.015000", "201546.015000", "201547.015000", "201548.015000", "201549.015000", "201550.015000", "201551.015000", "201552.015000", "201553.015000", "201554.015000", "201555.015000", "201556.015000", "201557.015000", "201558.015000", "201559.015000", "201600.015000", "201601.015000", "201602.015000", "201603.015000", "201604.015000", "201605.015000", "201606.015000", "201607.015000", "201608.015000", "201609.015000", "201610.015000", "201611.015000", "201612.015000", "201613.015000", "201614.015000", "201615.015000", "201616.015000", "201617.015000", "201618.015000", "201619.015000", "201620.015000", "201621.015000", "201622.015000", "201623.015000", "201624.015000", "201625.015000", "201626.015000", "201627.015000", "201628.015000", "201629.015000", "201630.015000", "201631.015000", "201632.015000", "201633.015000", "201634.015000", "201635.015000", "201636.015000", "201637.015000", "201638.015000", "201639.015000", "201640.015000", "201641.015000", "201642.015000", "201643.015000", "201644.015000", "201645.015000", "201646.015000", "201647.015000", "201648.015000", "201649.015000", "201650.015000", "201651.015000", "201652.015000", "201653.015000", "201654.015000", "201655.015000", "201656.015000", "201657.015000", "201658.015000"],
