{
  "AcquisitionMatrixPE": 96,
  "AcquisitionNumber": 1,
  "AcquisitionTime": "19:34:17.992500",
  "BandwidthPerPixelPhaseEncode": 18.939,
  "BaseResolution": 96,
  "BodyPartExamined": "BRAIN",
  "ConsistencyInfo": "N4_VE11C_LATEST_20160120",
  "ConversionSoftware": "dcm2niix",
  "ConversionSoftwareVersion": "v1.0.20190902",
  "DerivedVendorReportedEchoSpacing": 0.000550011,
  "DeviceSerialNumber": "66112",
  "DwellTime": 2.2e-06,
  "EchoTime": 0.033,
  "EchoTrainLength": 96,
  "EffectiveEchoSpacing": 0.000550011,
  "FlipAngle": 59,
  "ImageOrientationPatientDICOM": [0.998602, 0.0414864, 0.0327606, -0.0376643, 0.993248, -0.109725],
  "ImageType": [
    "ORIGINAL",
    "PRIMARY",
    "FMRI",
    "NONE",
    "ND",
    "NORM",
    "MOSAIC"
],
  "ImagingFrequency": 123.252,
  "InPlanePhaseEncodingDirectionDICOM": "COL",
  "InstitutionAddress": "Maynard_3_Hanover_NH_US_03755",
  "InstitutionName": "Dartmouth_College_-_PBS",
  "InstitutionalDepartmentName": "Department",
  "MRAcquisitionType": "2D",
  "MagneticFieldStrength": 3,
  "Manufacturer": "Siemens",
  "ManufacturersModelName": "Prisma",
  "Modality": "MR",
  "MultibandAccelerationFactor": 4,
  "PartialFourier": 1,
  "PatientPosition": "HFS",
  "PercentPhaseFOV": 100,
  "PhaseEncodingDirection": "j-",
  "PhaseEncodingSteps": 96,
  "PhaseResolution": 1,
  "PixelBandwidth": 2365,
  "ProcedureStepDescription": "Gobbini_Matteo_1037_budapest",
  "ProtocolName": "func_run-02_task-movie",
  "PulseSequenceDetails": "%SiemensSeq%_ep2d_bold",
  "ReceiveCoilActiveElements": "HEA;HEP",
  "ReceiveCoilName": "Head_32",
  "ReconMatrixPE": 96,
  "RefLinesPE": 12,
  "RepetitionTime": 1,
  "SAR": 0.0545281,
  "ScanOptions": "FS",
  "ScanningSequence": "EP",
  "SequenceName": "_epfid2d1_96",
  "SequenceVariant": "SK",
  "SeriesDescription": "func_run-02_task-movie",
  "SeriesNumber": 15,
  "ShimSetting": [4147, -7693, -7400, 656, 46, -145, -43, 30],
  "SliceThickness": 2.5,
  "SliceTiming": [0.735, 0, 0.49, 0.08, 0.57, 0.1625, 0.6525, 0.325, 0.815, 0.4075, 0.8975, 0.245, 0.735, 0, 0.49, 0.08, 0.57, 0.1625, 0.6525, 0.325, 0.815, 0.4075, 0.8975, 0.245, 0.735, 0, 0.49, 0.08, 0.57, 0.1625, 0.6525, 0.325, 0.815, 0.4075, 0.8975, 0.245, 0.735, 0, 0.49, 0.08, 0.57, 0.1625, 0.6525, 0.325, 0.815, 0.4075, 0.8975, 0.245],
  "SoftwareVersions": "syngo_MR_E11",
  "SpacingBetweenSlices": 2.5,
  "StationName": "AWP66112",
  "TaskName": "movie",
  "TotalReadoutTime": 0.0522511,
  "TxRefAmp": 248.108,
  "dcmmeta_affine": [
    [-2.496504545211792, -0.09416069090366364, 0.0927286222577095, 126.517333984375],
    [-0.1037159189581871, 2.4831204414367676, -0.2708432376384735, -100.87934112548828],
    [0.0819014236330986, 0.27431154251098633, 2.4835548400878906, -117.82860565185547],
    [0.0, 0.0, 0.0, 1.0]
],
  "dcmmeta_reorient_transform": [
    [0.0, -1.0, 0.0, 95.0],
    [1.0, 0.0, 0.0, 0.0],
    [0.0, 0.0, 1.0, 0.0],
    [0.0, 0.0, 0.0, 1.0]
],
  "dcmmeta_shape": [96, 96, 48, 498],
  "dcmmeta_slice_dim": 2,
  "dcmmeta_version": 0.6,
  "global": {
    "const": {
      "AccessionNumber": "A001331",
      "AcquisitionMatrix": [96, 0, 0, 96],
      "AngioFlag": "N",
      "BitsAllocated": 16,
      "BitsStored": 12,
      "BodyPartExamined": "BRAIN",
      "Columns": 672,
      "EchoNumbers": 1,
      "EchoTime": 33.0,
      "EchoTrainLength": 96,
      "FlipAngle": 59.0,
      "HighBit": 11,
      "ImageOrientationPatient": [0.99860183580346, 0.0414863670961, 0.03276056890734, -0.0376642777461, 0.99324816142386, -0.1097246189786],
      "ImagePositionPatient": [-809.44710649218, -880.02595815751, -36.354890017783],
      "ImageType": [
        "ORIGINAL",
        "PRIMARY",
        "FMRI",
        "NONE",
        "ND",
        "NORM",
        "MOSAIC"
],
      "ImagedNucleus": "1H",
      "ImagingFrequency": 123.252324,
      "InPlanePhaseEncodingDirection": "COL",
      "MRAcquisitionType": "2D",
      "MagneticFieldStrength": 3.0,
      "Manufacturer": "SIEMENS",
      "ManufacturerModelName": "Prisma",
      "Modality": "MR",
      "NumberOfAverages": 1.0,
      "NumberOfPhaseEncodingSteps": 96,
      "PercentPhaseFieldOfView": 100.0,
      "PercentSampling": 100.0,
      "PerformedProcedureStepStartTime": "185247.292000",
      "PhotometricInterpretation": "MONOCHROME2",
      "PixelBandwidth": 2365.0,
      "PixelRepresentation": 0,
      "PixelSpacing": [2.5, 2.5],
      "ProtocolName": "func_run-02_task-movie",
      "RepetitionTime": 1000.0,
      "Rows": 672,
      "SAR": 0.05452809303647,
      "SamplesPerPixel": 1,
      "ScanOptions": "FS",
      "ScanningSequence": "EP",
      "SequenceName": "*epfid2d1_96",
      "SequenceVariant": "SK",
      "SeriesDescription": "func_run-02_task-movie",
      "SeriesNumber": 15,
      "SeriesTime": "193419.143000",
      "SliceLocation": -101.43181851274,
      "SliceThickness": 2.5,
      "SmallestImagePixelValue": 0,
      "SoftwareVersions": "syngo MR E11",
      "SpacingBetweenSlices": 2.4999999236231,
      "SpecificCharacterSet": "ISO_IR 100",
      "StudyID": "1",
      "StudyTime": "185247.245000",
      "TransmitCoilName": "Body",
      "VariableFlipAngleFlag": "N",
      "WindowCenterWidthExplanation": "Algo1",
      "dBdt": 0.0},
    "slices": {}
  },
  "time": {
    "samples": {
      "AcquisitionNumber": [1, 2, 3, 4, 5, 6, 7, 8, 9, 10, 11, 12, 13, 14, 15, 16, 17, 18, 19, 20, 21, 22, 23, 24, 25, 26, 27, 28, 29, 30, 31, 32, 33, 34, 35, 36, 37, 38, 39, 40, 41, 42, 43, 44, 45, 46, 47, 48, 49, 50, 51, 52, 53, 54, 55, 56, 57, 58, 59, 60, 61, 62, 63, 64, 65, 66, 67, 68, 69, 70, 71, 72, 73, 74, 75, 76, 77, 78, 79, 80, 81, 82, 83, 84, 85, 86, 87, 88, 89, 90, 91, 92, 93, 94, 95, 96, 97, 98, 99, 100, 101, 102, 103, 104, 105, 106, 107, 108, 109, 110, 111, 112, 113, 114, 115, 116, 117, 118, 119, 120, 121, 122, 123, 124, 125, 126, 127, 128, 129, 130, 131, 132, 133, 134, 135, 136, 137, 138, 139, 140, 141, 142, 143, 144, 145, 146, 147, 148, 149, 150, 151, 152, 153, 154, 155, 156, 157, 158, 159, 160, 161, 162, 163, 164, 165, 166, 167, 168, 169, 170, 171, 172, 173, 174, 175, 176, 177, 178, 179, 180, 181, 182, 183, 184, 185, 186, 187, 188, 189, 190, 191, 192, 193, 194, 195, 196, 197, 198, 199, 200, 201, 202, 203, 204, 205, 206, 207, 208, 209, 210, 211, 212, 213, 214, 215, 216, 217, 218, 219, 220, 221, 222, 223, 224, 225, 226, 227, 228, 229, 230, 231, 232, 233, 234, 235, 236, 237, 238, 239, 240, 241, 242, 243, 244, 245, 246, 247, 248, 249, 250, 251, 252, 253, 254, 255, 256, 257, 258, 259, 260, 261, 262, 263, 264, 265, 266, 267, 268, 269, 270, 271, 272, 273, 274, 275, 276, 277, 278, 279, 280, 281, 282, 283, 284, 285, 286, 287, 288, 289, 290, 291, 292, 293, 294, 295, 296, 297, 298, 299, 300, 301, 302, 303, 304, 305, 306, 307, 308, 309, 310, 311, 312, 313, 314, 315, 316, 317, 318, 319, 320, 321, 322, 323, 324, 325, 326, 327, 328, 329, 330, 331, 332, 333, 334, 335, 336, 337, 338, 339, 340, 341, 342, 343, 344, 345, 346, 347, 348, 349, 350, 351, 352, 353, 354, 355, 356, 357, 358, 359, 360, 361, 362, 363, 364, 365, 366, 367, 368, 369, 370, 371, 372, 373, 374, 375, 376, 377, 378, 379, 380, 381, 382, 383, 384, 385, 386, 387, 388, 389, 390, 391, 392, 393, 394, 395, 396, 397, 398, 399, 400, 401, 402, 403, 404, 405, 406, 407, 408, 409, 410, 411, 412, 413, 414, 415, 416, 417, 418, 419, 420, 421, 422, 423, 424, 425, 426, 427, 428, 429, 430, 431, 432, 433, 434, 435, 436, 437, 438, 439, 440, 441, 442, 443, 444, 445, 446, 447, 448, 449, 450, 451, 452, 453, 454, 455, 456, 457, 458, 459, 460, 461, 462, 463, 464, 465, 466, 467, 468, 469, 470, 471, 472, 473, 474, 475, 476, 477, 478, 479, 480, 481, 482, 483, 484, 485, 486, 487, 488, 489, 490, 491, 492, 493, 494, 495, 496, 497, 498],
      "AcquisitionTime": ["193417.992500", "193418.992500", "193419.992500", "193420.992500", "193421.992500", "193422.992500", "193423.992500", "193424.992500", "193425.992500", "193426.992500", "193427.992500", "193428.992500", "193429.992500", "193430.992500", "193431.992500", "193432.992500", "193433.992500", "193434.992500", "193435.992500", "193436.992500", "193437.992500", "193438.992500", "193439.992500", "193440.992500", "193441.992500", "193442.992500", "193443.992500", "193444.992500", "193445.992500", "193446.992500", "193447.992500", "193448.992500", "193449.992500", "193450.992500", "193451.992500", "193452.992500", "193453.992500", "193454.992500", "193455.992500", "193456.992500", "193457.992500", "193458.992500", "193459.992500", "193500.992500", "193501.992500", "193502.992500", "193503.992500", "193504.992500", "193505.992500", "193506.992500", "193507.992500", "193508.992500", "193509.992500", "193510.992500", "193511.992500", "193512.992500", "193513.992500", "193514.992500", "193515.992500", "193516.992500", "193517.992500", "193518.992500", "193519.992500", "193520.992500", "193521.992500", "193522.992500", "193523.992500", "193524.992500", "193525.992500", "193526.992500", "193527.992500", "193528.992500", "193529.992500", "193530.992500", "193531.992500", "193532.992500", "193533.992500", "193534.992500", "193535.992500", "193536.992500", "193537.992500", "193538.992500", "193539.992500", "193540.992500", "193541.992500", "193542.992500", "193543.992500", "193544.992500", "193545.992500", "193546.992500", "193547.992500", "193548.992500", "193549.992500", "193550.992500", "193551.992500", "193552.992500", "193553.992500", "193554.992500", "193555.992500", "193556.992500", "193557.992500", "193558.992500", "193559.992500", "193600.992500", "193601.992500", "193602.992500", "193603.992500", "193604.992500", "193605.992500", "193606.992500", "193607.992500", "193608.992500", "193609.992500", "193610.992500", "193611.992500", "193612.992500", "193613.992500", "193614.992500", "193615.992500", "193616.992500", "193617.992500", "193618.992500", "193619.992500", "193620.992500", "193621.992500", "193622.992500", "193623.992500", "193624.992500", "193625.992500", "193626.992500", "193627.992500", "193628.992500", "193629.992500", "193630.992500", "193631.992500", "193632.992500", "193633.992500", "193634.992500", "193635.992500", "193636.992500", "193637.992500", "193638.992500", "193639.992500", "193640.992500", "193641.992500", "193642.992500", "193643.992500", "193644.992500", "193645.992500", "193646.992500", "193647.992500", "193648.992500", "193649.992500", "193650.992500", "193651.992500", "193652.992500", "193653.992500", "193654.992500", "193655.992500", "193656.992500", "193657.992500", "193658.992500", "193659.992500", "193700.992500", "193701.992500", "193702.992500", "193703.992500", "193704.992500", "193705.992500", "193706.992500", "193707.992500", "193708.992500", "193709.992500", "193710.992500", "193711.992500", "193712.992500", "193713.992500", "193714.992500", "193715.992500", "193716.992500", "193717.992500", "193718.992500", "193719.992500", "193720.992500", "193721.992500", "193722.992500", "193723.992500", "193724.992500", "193725.992500", "193726.992500", "193727.992500", "193728.992500", "193729.992500", "193730.992500", "193731.992500", "193732.992500", "193733.992500", "193734.992500", "193735.992500", "193736.992500", "193737.992500", "193738.992500", "193739.992500", "193740.992500", "193741.992500", "193742.992500", "193743.992500", "193744.992500", "193745.992500", "193746.992500", "193747.992500", "193748.992500", "193749.992500", "193750.992500", "193751.992500", "193752.992500", "193753.992500", "193754.992500", "193755.992500", "193756.992500", "193757.992500", "193758.992500", "193759.992500", "193800.992500", "193801.992500", "193802.992500", "193803.992500", "193804.992500", "193805.992500", "193806.992500", "193807.992500", "193808.992500", "193809.992500", "193810.992500", "193811.992500", "193812.992500", "193813.992500", "193814.992500", "193815.992500", "193816.992500", "193817.992500", "193818.992500", "193819.992500", "193820.992500", "193821.992500", "193822.992500", "193823.992500", "193824.992500", "193825.992500", "193826.992500", "193827.992500", "193828.992500", "193829.992500", "193830.992500", "193831.992500", "193832.992500", "193833.992500", "193834.992500", "193835.992500", "193836.992500", "193837.992500", "193838.992500", "193839.992500", "193840.992500", "193841.992500", "193842.992500", "193843.992500", "193844.992500", "193845.992500", "193846.992500", "193847.992500", "193848.992500", "193849.992500", "193850.992500", "193851.992500", "193852.992500", "193853.992500", "193854.992500", "193855.992500", "193856.992500", "193857.992500", "193858.992500", "193859.992500", "193900.992500", "193901.992500", "193902.992500", "193903.992500", "193904.992500", "193905.992500", "193906.992500", "193907.992500", "193908.992500", "193909.992500", "193910.992500", "193911.992500", "193912.992500", "193913.992500", "193914.992500", "193915.992500", "193916.992500", "193917.992500", "193918.992500", "193919.992500", "193920.992500", "193921.992500", "193922.992500", "193923.992500", "193924.992500", "193925.992500", "193926.992500", "193927.992500", "193928.992500", "193929.992500", "193930.992500", "193931.992500", "193932.992500", "193933.992500", "193934.992500", "193935.992500", "193936.992500", "193937.992500", "193938.992500", "193939.992500", "193940.992500", "193941.992500", "193942.992500", "193943.992500", "193944.992500", "193945.992500", "193946.992500", "193947.992500", "193948.992500", "193949.992500", "193950.992500", "193951.992500", "193952.992500", "193953.992500", "193954.992500", "193955.992500", "193956.992500", "193957.992500", "193958.992500", "193959.992500", "194000.992500", "194001.992500", "194002.992500", "194003.992500", "194004.992500", "194005.992500", "194006.992500", "194007.992500", "194008.992500", "194009.992500", "194010.992500", "194011.992500", "194012.992500", "194013.992500", "194014.992500", "194015.992500", "194016.992500", "194017.992500", "194018.992500", "194019.992500", "194020.992500", "194021.992500", "194022.992500", "194023.992500", "194024.992500", "194025.992500", "194026.992500", "194027.992500", "194028.992500", "194029.992500", "194030.992500", "194031.992500", "194032.992500", "194033.992500", "194034.992500", "194035.992500", "194036.992500", "194037.992500", "194038.992500", "194039.992500", "194040.992500", "194041.992500", "194042.992500", "194043.992500", "194044.992500", "194045.992500", "194046.992500", "194047.992500", "194048.992500", "194049.992500", "194050.992500", "194051.992500", "194052.992500", "194053.992500", "194054.992500", "194055.992500", "194056.992500", "194057.992500", "194058.992500", "194059.992500", "194100.992500", "194101.992500", "194102.992500", "194103.992500", "194104.992500", "194105.992500", "194106.992500", "194107.992500", "194108.992500", "194109.992500", "194110.992500", "194111.992500", "194112.992500", "194113.992500", "194114.992500", "194115.992500", "194116.992500", "194117.992500", "194118.992500", "194119.992500", "194120.992500", "194121.992500", "194122.992500", "194123.992500", "194124.992500", "194125.992500", "194126.992500", "194127.992500", "194128.992500", "194129.992500", "194130.992500", "194131.992500", "194132.992500", "194133.992500", "194134.992500", "194135.992500", "194136.992500", "194137.992500", "194138.992500", "194139.992500", "194140.992500", "194141.992500", "194142.992500", "194143.992500", "194144.992500", "194145.992500", "194146.992500", "194147.992500", "194148.992500", "194149.992500", "194150.992500", "194151.992500", "194152.992500", "194153.992500", "194154.992500", "194155.992500", "194156.992500", "194157.992500", "194158.992500", "194159.992500", "194200.992500", "194201.992500", "194202.992500", "194203.992500", "194204.992500", "194205.992500", "194206.992500", "194207.992500", "194208.992500", "194209.992500", "194210.992500", "194211.992500", "194212.992500", "194213.992500", "194214.992500", "194215.992500", "194216.992500", "194217.992500", "194218.992500", "194219.992500", "194220.992500", "194221.992500", "194222.992500", "194223.992500", "194224.992500", "194225.992500", "194226.992500", "194227.992500", "194228.992500", "194229.992500", "194230.992500", "194231.992500", "194232.992500", "194233.992500", "194234.992500"],
      "ContentTime": ["193419.147000", "193419.981000", "193420.997000", "193421.998000", "193422.971000", "193424.008000", "193425.000000", "193426.033000", "193427.012000", "193427.986000", "193428.994000", "193429.978000", "193431.000000", "193431.969000", "193433.007000", "193433.996000", "193434.970000", "193436.010000", "193436.957000", "193437.986000", "193438.987000", "193439.994000", "193440.974000", "193441.962000", "193443.004000", "193443.983000", "193444.974000", "193445.992000", "193446.965000", "193447.985000", "193448.979000", "193449.977000", "193450.984000", "193451.972000", "193452.979000", "193454.046000", "193454.982000", "193455.969000", "193456.980000", "193458.003000", "193458.981000", "193459.986000", "193500.979000", "193501.964000", "193503.032000", "193504.003000", "193504.996000", "193505.990000", "193506.986000", "193507.973000", "193508.987000", "193509.984000", "193511.058000", "193511.990000", "193513.007000", "193513.993000", "193514.986000", "193515.983000", "193517.020000", "193518.019000", "193518.988000", "193519.983000", "193520.980000", "193521.988000", "193522.946000", "193524.007000", "193525.013000", "193525.986000", "193527.018000", "193527.978000", "193529.007000", "193529.977000", "193530.996000", "193531.993000", "193533.016000", "193533.978000", "193535.012000", "193535.985000", "193537.023000", "193537.991000", "193539.044000", "193540.008000", "193541.050000", "193541.989000", "193542.990000", "193543.981000", "193544.992000", "193545.994000", "193546.969000", "193547.983000", "193548.973000", "193550.032000", "193551.002000", "193552.003000", "193553.019000", "193553.997000", "193554.957000", "193555.992000", "193556.978000", "193557.971000", "193558.966000", "193600.003000", "193601.013000", "193602.017000", "193602.998000", "193604.000000", "193604.968000", "193605.949000", "193606.984000", "193608.016000", "193608.994000", "193610.005000", "193610.978000", "193612.003000", "193612.994000", "193613.989000", "193615.003000", "193616.003000", "193616.983000", "193617.998000", "193618.989000", "193620.004000", "193620.990000", "193622.013000", "193622.977000", "193624.032000", "193625.019000", "193626.036000", "193627.069000", "193628.013000", "193629.009000", "193630.037000", "193631.001000", "193631.987000", "193633.007000", "193633.992000", "193635.004000", "193636.001000", "193637.035000", "193638.007000", "193639.003000", "193639.980000", "193641.000000", "193642.014000", "193642.967000", "193643.954000", "193645.007000", "193645.994000", "193647.002000", "193647.992000", "193649.035000", "193649.975000", "193651.003000", "193651.988000", "193652.991000", "193653.998000", "193655.027000", "193656.011000", "193657.004000", "193658.020000", "193659.001000", "193659.992000", "193701.019000", "193702.006000", "193702.997000", "193704.003000", "193704.997000", "193706.032000", "193706.992000", "193707.967000", "193709.001000", "193709.985000", "193711.009000", "193711.975000", "193712.990000", "193714.007000", "193714.967000", "193715.982000", "193716.988000", "193718.015000", "193718.995000", "193719.984000", "193720.989000", "193721.984000", "193722.998000", "193723.974000", "193725.027000", "193725.974000", "193726.993000", "193728.016000", "193729.003000", "193729.990000", "193730.982000", "193731.994000", "193733.002000", "193733.986000", "193734.991000", "193735.996000", "193737.011000", "193737.985000", "193738.996000", "193739.996000", "193740.984000", "193741.980000", "193742.986000", "193743.981000", "193745.003000", "193745.967000", "193746.991000", "193747.986000", "193748.994000", "193749.993000", "193751.012000", "193751.994000", "193753.003000", "193753.994000", "193755.003000", "193756.020000", "193756.997000", "193757.984000", "193758.989000", "193759.995000", "193800.969000", "193802.004000", "193803.022000", "193804.010000", "193804.981000", "193805.989000", "193807.013000", "193807.992000", "193809.017000", "193809.998000", "193811.012000", "193812.016000", "193813.011000", "193814.006000", "193814.998000", "193815.988000", "193817.000000", "193817.982000", "193819.005000", "193819.996000", "193821.002000", "193821.992000", "193822.984000", "193823.970000", "193824.988000", "193825.983000", "193827.004000", "193828.032000", "193829.002000", "193830.054000", "193831.000000", "193831.992000", "193832.979000", "193834.010000", "193834.990000", "193836.007000", "193837.001000", "193838.015000", "193838.957000", "193840.016000", "193841.001000", "193841.984000", "193843.030000", "193843.995000", "193844.992000", "193845.974000", "193846.977000", "193847.957000", "193849.007000", "193849.978000", "193850.997000", "193851.990000", "193853.033000", "193853.990000", "193855.006000", "193855.996000", "193856.979000", "193858.002000", "193858.973000", "193859.995000", "193900.989000", "193901.981000", "193902.998000", "193903.985000", "193904.983000", "193905.990000", "193906.994000", "193908.010000", "193909.012000", "193909.993000", "193910.965000", "193911.988000", "193912.987000", "193913.983000", "193914.991000", "193916.023000", "193917.017000", "193917.982000", "193918.959000", "193919.988000", "193921.019000", "193921.962000", "193922.986000", "193923.987000", "193924.996000", "193925.978000", "193926.988000", "193927.987000", "193928.998000", "193929.995000", "193931.008000", "193931.955000", "193933.032000", "193933.997000", "193934.996000", "193936.010000", "193937.009000", "193937.993000", "193938.954000", "193939.983000", "193940.992000", "193942.029000", "193942.981000", "193943.992000", "193944.988000", "193946.020000", "193947.006000", "193948.057000", "193948.975000", "193949.975000", "193951.034000", "193951.964000", "193952.976000", "193953.949000", "193955.028000", "193956.044000", "193956.985000", "193957.990000", "193958.979000", "194000.025000", "194001.019000", "194001.989000", "194003.029000", "194004.011000", "194004.993000", "194005.996000", "194007.013000", "194007.963000", "194008.978000", "194009.959000", "194010.972000", "194011.977000", "194012.978000", "194013.988000", "194014.996000", "194015.996000", "194016.998000", "194017.978000", "194018.976000", "194019.996000", "194020.981000", "194021.993000", "194022.993000", "194023.995000", "194025.039000", "194025.966000", "194026.979000", "194027.986000", "194028.997000", "194029.983000", "194031.004000", "194032.002000", "194033.007000", "194034.001000", "194035.000000", "194035.970000", "194036.974000", "194037.991000", "194038.988000", "194039.989000", "194040.974000", "194042.022000", "194042.971000", "194043.998000", "194044.971000", "194045.979000", "194046.947000", "194047.991000", "194048.997000", "194049.978000", "194051.003000", "194051.975000", "194052.991000", "194053.995000", "194054.980000", "194055.976000", "194056.978000", "194057.985000", "194058.995000", "194059.970000", "194100.985000", "194101.974000", "194102.984000", "194103.980000", "194104.986000", "194105.978000", "194106.979000", "194107.955000", "194108.973000", "194109.987000", "194110.969000", "194111.950000", "194112.995000", "194113.995000", "194114.992000", "194115.984000", "194116.984000", "194117.990000", "194119.012000", "194119.976000", "194121.025000", "194121.984000", "194122.988000", "194124.002000", "194124.983000", "194125.994000", "194127.001000", "194127.976000", "194129.032000", "194130.009000", "194131.032000", "194132.030000", "194132.993000", "194133.976000", "194135.003000", "194136.004000", "194137.013000", "194137.994000", "194139.002000", "194139.957000", "194140.993000", "194141.971000", "194142.988000", "194144.006000", "194144.990000", "194146.082000", "194146.994000", "194147.965000", "194148.989000", "194149.982000", "194151.030000", "194152.015000", "194152.986000", "194153.988000", "194155.003000", "194155.987000", "194157.007000", "194157.986000", "194159.001000", "194159.986000", "194200.987000", "194201.976000", "194203.072000", "194203.984000", "194204.980000", "194205.986000", "194206.989000", "194208.005000", "194208.979000", "194209.992000", "194210.989000", "194211.995000", "194212.984000", "194213.979000", "194214.974000", "194215.975000", "194216.980000", "194217.968000", "194218.956000", "194219.992000", "194221.000000", "194221.979000", "194222.987000", "194223.983000", "194224.985000", "194226.015000", "194226.982000", "194227.970000", "194228.981000", "194230.002000", "194230.984000", "194232.009000", "194232.997000", "194233.986000", "194235.038000", "194236.029000"],
