{
  "AcquisitionMatrixPE": 96,
  "AcquisitionNumber": 1,
  "AcquisitionTime": "19:43:9.305000",
  "BandwidthPerPixelPhaseEncode": 18.939,
  "BaseResolution": 96,
  "BodyPartExamined": "BRAIN",
  "ConsistencyInfo": "N4_VE11C_LATEST_20160120",
  "ConversionSoftware": "dcm2niix",
  "ConversionSoftwareVersion": "v1.0.20190902",
  "DerivedVendorReportedEchoSpacing": 0.000550011,
  "DeviceSerialNumber": "66112",
  "DwellTime": 2.2e-06,
  "EchoTime": 0.033,
  "EchoTrainLength": 96,
  "EffectiveEchoSpacing": 0.000550011,
  "FlipAngle": 59,
  "ImageOrientationPatientDICOM": [0.998602, 0.0414864, 0.0327606, -0.0376643, 0.993248, -0.109725],
  "ImageType": [
    "ORIGINAL",
    "PRIMARY",
    "FMRI",
    "NONE",
    "ND",
    "NORM",
    "MOSAIC"
],
  "ImagingFrequency": 123.252,
  "InPlanePhaseEncodingDirectionDICOM": "COL",
  "InstitutionAddress": "Maynard_3_Hanover_NH_US_03755",
  "InstitutionName": "Dartmouth_College_-_PBS",
  "InstitutionalDepartmentName": "Department",
  "MRAcquisitionType": "2D",
  "MagneticFieldStrength": 3,
  "Manufacturer": "Siemens",
  "ManufacturersModelName": "Prisma",
  "Modality": "MR",
  "MultibandAccelerationFactor": 4,
  "PartialFourier": 1,
  "PatientPosition": "HFS",
  "PercentPhaseFOV": 100,
  "PhaseEncodingDirection": "j-",
  "PhaseEncodingSteps": 96,
  "PhaseResolution": 1,
  "PixelBandwidth": 2365,
  "ProcedureStepDescription": "Gobbini_Matteo_1037_budapest",
  "ProtocolName": "func_run-03_task-movie",
  "PulseSequenceDetails": "%SiemensSeq%_ep2d_bold",
  "ReceiveCoilActiveElements": "HEA;HEP",
  "ReceiveCoilName": "Head_32",
  "ReconMatrixPE": 96,
  "RefLinesPE": 12,
  "RepetitionTime": 1,
  "SAR": 0.0545525,
  "ScanOptions": "FS",
  "ScanningSequence": "EP",
  "SequenceName": "_epfid2d1_96",
  "SequenceVariant": "SK",
  "SeriesDescription": "func_run-03_task-movie",
  "SeriesNumber": 22,
  "ShimSetting": [4147, -7693, -7400, 656, 46, -145, -43, 30],
  "SliceThickness": 2.5,
  "SliceTiming": [0.735, 0, 0.49, 0.0825, 0.5725, 0.1625, 0.6525, 0.3275, 0.8175, 0.4075, 0.8975, 0.245, 0.735, 0, 0.49, 0.0825, 0.5725, 0.1625, 0.6525, 0.3275, 0.8175, 0.4075, 0.8975, 0.245, 0.735, 0, 0.49, 0.0825, 0.5725, 0.1625, 0.6525, 0.3275, 0.8175, 0.4075, 0.8975, 0.245, 0.735, 0, 0.49, 0.0825, 0.5725, 0.1625, 0.6525, 0.3275, 0.8175, 0.4075, 0.8975, 0.245],
  "SoftwareVersions": "syngo_MR_E11",
  "SpacingBetweenSlices": 2.5,
  "StationName": "AWP66112",
  "TaskName": "movie",
  "TotalReadoutTime": 0.0522511,
  "TxRefAmp": 248.108,
  "dcmmeta_affine": [
    [-2.496504545211792, -0.09416069090366364, 0.0927286222577095, 126.517333984375],
    [-0.1037159189581871, 2.4831204414367676, -0.2708432376384735, -100.87934112548828],
    [0.0819014236330986, 0.27431154251098633, 2.4835548400878906, -117.82860565185547],
    [0.0, 0.0, 0.0, 1.0]
],
  "dcmmeta_reorient_transform": [
    [0.0, -1.0, 0.0, 95.0],
    [1.0, 0.0, 0.0, 0.0],
    [0.0, 0.0, 1.0, 0.0],
    [0.0, 0.0, 0.0, 1.0]
],
  "dcmmeta_shape": [96, 96, 48, 535],
  "dcmmeta_slice_dim": 2,
  "dcmmeta_version": 0.6,
  "global": {
    "const": {
      "AccessionNumber": "A001331",
      "AcquisitionMatrix": [96, 0, 0, 96],
      "AngioFlag": "N",
      "BitsAllocated": 16,
      "BitsStored": 12,
      "BodyPartExamined": "BRAIN",
      "Columns": 672,
      "EchoNumbers": 1,
      "EchoTime": 33.0,
      "EchoTrainLength": 96,
      "FlipAngle": 59.0,
      "HighBit": 11,
      "ImageOrientationPatient": [0.99860183580346, 0.0414863670961, 0.03276056890734, -0.0376642777461, 0.99324816142386, -0.1097246189786],
      "ImagePositionPatient": [-809.44710649218, -880.02595815751, -36.354890017783],
      "ImageType": [
        "ORIGINAL",
        "PRIMARY",
        "FMRI",
        "NONE",
        "ND",
        "NORM",
        "MOSAIC"
],
      "ImagedNucleus": "1H",
      "ImagingFrequency": 123.252329,
      "InPlanePhaseEncodingDirection": "COL",
      "MRAcquisitionType": "2D",
      "MagneticFieldStrength": 3.0,
      "Manufacturer": "SIEMENS",
      "ManufacturerModelName": "Prisma",
      "Modality": "MR",
      "NumberOfAverages": 1.0,
      "NumberOfPhaseEncodingSteps": 96,
      "PercentPhaseFieldOfView": 100.0,
      "PercentSampling": 100.0,
      "PerformedProcedureStepStartTime": "185247.292000",
      "PhotometricInterpretation": "MONOCHROME2",
      "PixelBandwidth": 2365.0,
      "PixelRepresentation": 0,
      "PixelSpacing": [2.5, 2.5],
      "ProtocolName": "func_run-03_task-movie",
      "RepetitionTime": 1000.0,
      "Rows": 672,
      "SAR": 0.05455246955738,
      "SamplesPerPixel": 1,
      "ScanOptions": "FS",
      "ScanningSequence": "EP",
      "SequenceName": "*epfid2d1_96",
      "SequenceVariant": "SK",
      "SeriesDescription": "func_run-03_task-movie",
      "SeriesNumber": 22,
      "SeriesTime": "194310.145000",
      "SliceLocation": -101.43181851274,
      "SliceThickness": 2.5,
      "SmallestImagePixelValue": 0,
      "SoftwareVersions": "syngo MR E11",
      "SpacingBetweenSlices": 2.4999999236231,
      "SpecificCharacterSet": "ISO_IR 100",
      "StudyID": "1",
      "StudyTime": "185247.245000",
      "TransmitCoilName": "Body",
      "VariableFlipAngleFlag": "N",
      "WindowCenterWidthExplanation": "Algo1",
      "dBdt": 0.0},
    "slices": {}
  },
  "time": {
    "samples": {
      "AcquisitionNumber": [1, 2, 3, 4, 5, 6, 7, 8, 9, 10, 11, 12, 13, 14, 15, 16, 17, 18, 19, 20, 21, 22, 23, 24, 25, 26, 27, 28, 29, 30, 31, 32, 33, 34, 35, 36, 37, 38, 39, 40, 41, 42, 43, 44, 45, 46, 47, 48, 49, 50, 51, 52, 53, 54, 55, 56, 57, 58, 59, 60, 61, 62, 63, 64, 65, 66, 67, 68, 69, 70, 71, 72, 73, 74, 75, 76, 77, 78, 79, 80, 81, 82, 83, 84, 85, 86, 87, 88, 89, 90, 91, 92, 93, 94, 95, 96, 97, 98, 99, 100, 101, 102, 103, 104, 105, 106, 107, 108, 109, 110, 111, 112, 113, 114, 115, 116, 117, 118, 119, 120, 121, 122, 123, 124, 125, 126, 127, 128, 129, 130, 131, 132, 133, 134, 135, 136, 137, 138, 139, 140, 141, 142, 143, 144, 145, 146, 147, 148, 149, 150, 151, 152, 153, 154, 155, 156, 157, 158, 159, 160, 161, 162, 163, 164, 165, 166, 167, 168, 169, 170, 171, 172, 173, 174, 175, 176, 177, 178, 179, 180, 181, 182, 183, 184, 185, 186, 187, 188, 189, 190, 191, 192, 193, 194, 195, 196, 197, 198, 199, 200, 201, 202, 203, 204, 205, 206, 207, 208, 209, 210, 211, 212, 213, 214, 215, 216, 217, 218, 219, 220, 221, 222, 223, 224, 225, 226, 227, 228, 229, 230, 231, 232, 233, 234, 235, 236, 237, 238, 239, 240, 241, 242, 243, 244, 245, 246, 247, 248, 249, 250, 251, 252, 253, 254, 255, 256, 257, 258, 259, 260, 261, 262, 263, 264, 265, 266, 267, 268, 269, 270, 271, 272, 273, 274, 275, 276, 277, 278, 279, 280, 281, 282, 283, 284, 285, 286, 287, 288, 289, 290, 291, 292, 293, 294, 295, 296, 297, 298, 299, 300, 301, 302, 303, 304, 305, 306, 307, 308, 309, 310, 311, 312, 313, 314, 315, 316, 317, 318, 319, 320, 321, 322, 323, 324, 325, 326, 327, 328, 329, 330, 331, 332, 333, 334, 335, 336, 337, 338, 339, 340, 341, 342, 343, 344, 345, 346, 347, 348, 349, 350, 351, 352, 353, 354, 355, 356, 357, 358, 359, 360, 361, 362, 363, 364, 365, 366, 367, 368, 369, 370, 371, 372, 373, 374, 375, 376, 377, 378, 379, 380, 381, 382, 383, 384, 385, 386, 387, 388, 389, 390, 391, 392, 393, 394, 395, 396, 397, 398, 399, 400, 401, 402, 403, 404, 405, 406, 407, 408, 409, 410, 411, 412, 413, 414, 415, 416, 417, 418, 419, 420, 421, 422, 423, 424, 425, 426, 427, 428, 429, 430, 431, 432, 433, 434, 435, 436, 437, 438, 439, 440, 441, 442, 443, 444, 445, 446, 447, 448, 449, 450, 451, 452, 453, 454, 455, 456, 457, 458, 459, 460, 461, 462, 463, 464, 465, 466, 467, 468, 469, 470, 471, 472, 473, 474, 475, 476, 477, 478, 479, 480, 481, 482, 483, 484, 485, 486, 487, 488, 489, 490, 491, 492, 493, 494, 495, 496, 497, 498, 499, 500, 501, 502, 503, 504, 505, 506, 507, 508, 509, 510, 511, 512, 513, 514, 515, 516, 517, 518, 519, 520, 521, 522, 523, 524, 525, 526, 527, 528, 529, 530, 531, 532, 533, 534, 535],
      "AcquisitionTime": ["194309.305000", "194310.305000", "194311.305000", "194312.305000", "194313.305000", "194314.305000", "194315.305000", "194316.305000", "194317.305000", "194318.305000", "194319.305000", "194320.305000", "194321.305000", "194322.305000", "194323.305000", "194324.305000", "194325.305000", "194326.305000", "194327.305000", "194328.305000", "194329.305000", "194330.305000", "194331.305000", "194332.305000", "194333.305000", "194334.305000", "194335.305000", "194336.305000", "194337.305000", "194338.305000", "194339.305000", "194340.305000", "194341.305000", "194342.305000", "194343.305000", "194344.305000", "194345.305000", "194346.305000", "194347.305000", "194348.305000", "194349.305000", "194350.305000", "194351.305000", "194352.305000", "194353.305000", "194354.305000", "194355.305000", "194356.305000", "194357.305000", "194358.305000", "194359.305000", "194400.305000", "194401.305000", "194402.305000", "194403.305000", "194404.305000", "194405.305000", "194406.305000", "194407.305000", "194408.305000", "194409.305000", "194410.305000", "194411.305000", "194412.305000", "194413.305000", "194414.305000", "194415.305000", "194416.305000", "194417.305000", "194418.305000", "194419.305000", "194420.305000", "194421.305000", "194422.305000", "194423.305000", "194424.305000", "194425.305000", "194426.305000", "194427.305000", "194428.305000", "194429.305000", "194430.305000", "194431.305000", "194432.305000", "194433.305000", "194434.305000", "194435.305000", "194436.305000", "194437.305000", "194438.305000", "194439.305000", "194440.305000", "194441.305000", "194442.305000", "194443.305000", "194444.305000", "194445.305000", "194446.305000", "194447.305000", "194448.305000", "194449.305000", "194450.305000", "194451.305000", "194452.305000", "194453.305000", "194454.305000", "194455.305000", "194456.305000", "194457.305000", "194458.305000", "194459.305000", "194500.305000", "194501.305000", "194502.305000", "194503.305000", "194504.305000", "194505.305000", "194506.305000", "194507.305000", "194508.305000", "194509.305000", "194510.305000", "194511.305000", "194512.305000", "194513.305000", "194514.305000", "194515.305000", "194516.305000", "194517.305000", "194518.305000", "194519.305000", "194520.305000", "194521.305000", "194522.305000", "194523.305000", "194524.305000", "194525.305000", "194526.305000", "194527.305000", "194528.305000", "194529.305000", "194530.305000", "194531.305000", "194532.305000", "194533.305000", "194534.305000", "194535.305000", "194536.305000", "194537.305000", "194538.305000", "194539.305000", "194540.305000", "194541.305000", "194542.305000", "194543.305000", "194544.305000", "194545.305000", "194546.305000", "194547.305000", "194548.305000", "194549.305000", "194550.305000", "194551.305000", "194552.305000", "194553.305000", "194554.305000", "194555.305000", "194556.305000", "194557.305000", "194558.305000", "194559.305000", "194600.305000", "194601.305000", "194602.305000", "194603.305000", "194604.305000", "194605.305000", "194606.305000", "194607.305000", "194608.305000", "194609.305000", "194610.305000", "194611.305000", "194612.305000", "194613.305000", "194614.305000", "194615.305000", "194616.305000", "194617.305000", "194618.305000", "194619.305000", "194620.305000", "194621.305000", "194622.305000", "194623.305000", "194624.305000", "194625.305000", "194626.305000", "194627.305000", "194628.305000", "194629.305000", "194630.305000", "194631.305000", "194632.305000", "194633.305000", "194634.305000", "194635.305000", "194636.305000", "194637.305000", "194638.305000", "194639.305000", "194640.305000", "194641.305000", "194642.305000", "194643.305000", "194644.305000", "194645.305000", "194646.305000", "194647.305000", "194648.305000", "194649.305000", "194650.305000", "194651.305000", "194652.305000", "194653.305000", "194654.305000", "194655.305000", "194656.305000", "194657.305000", "194658.305000", "194659.305000", "194700.305000", "194701.305000", "194702.305000", "194703.305000", "194704.305000", "194705.305000", "194706.305000", "194707.305000", "194708.305000", "194709.305000", "194710.305000", "194711.305000", "194712.305000", "194713.305000", "194714.305000", "194715.305000", "194716.305000", "194717.305000", "194718.305000", "194719.305000", "194720.305000", "194721.305000", "194722.305000", "194723.305000", "194724.305000", "194725.305000", "194726.305000", "194727.305000", "194728.305000", "194729.305000", "194730.305000", "194731.305000", "194732.305000", "194733.305000", "194734.305000", "194735.305000", "194736.305000", "194737.305000", "194738.305000", "194739.305000", "194740.305000", "194741.305000", "194742.305000", "194743.305000", "194744.305000", "194745.305000", "194746.305000", "194747.305000", "194748.305000", "194749.305000", "194750.305000", "194751.305000", "194752.305000", "194753.305000", "194754.305000", "194755.305000", "194756.305000", "194757.305000", "194758.305000", "194759.305000", "194800.305000", "194801.305000", "194802.305000", "194803.305000", "194804.305000", "194805.305000", "194806.305000", "194807.305000", "194808.305000", "194809.305000", "194810.305000", "194811.305000", "194812.305000", "194813.305000", "194814.305000", "194815.305000", "194816.305000", "194817.305000", "194818.305000", "194819.305000", "194820.305000", "194821.305000", "194822.305000", "194823.305000", "194824.305000", "194825.305000", "194826.305000", "194827.305000", "194828.305000", "194829.305000", "194830.305000", "194831.305000", "194832.305000", "194833.305000", "194834.305000", "194835.305000", "194836.305000", "194837.305000", "194838.305000", "194839.305000", "194840.305000", "194841.305000", "194842.305000", "194843.305000", "194844.305000", "194845.305000", "194846.305000", "194847.305000", "194848.305000", "194849.305000", "194850.305000", "194851.305000", "194852.305000", "194853.305000", "194854.305000", "194855.305000", "194856.305000", "194857.305000", "194858.305000", "194859.305000", "194900.305000", "194901.305000", "194902.305000", "194903.305000", "194904.305000", "194905.305000", "194906.305000", "194907.305000", "194908.305000", "194909.305000", "194910.305000", "194911.305000", "194912.305000", "194913.305000", "194914.305000", "194915.305000", "194916.305000", "194917.305000", "194918.305000", "194919.305000", "194920.305000", "194921.305000", "194922.305000", "194923.305000", "194924.305000", "194925.305000", "194926.305000", "194927.305000", "194928.305000", "194929.305000", "194930.305000", "194931.305000", "194932.305000", "194933.305000", "194934.305000", "194935.305000", "194936.305000", "194937.305000", "194938.305000", "194939.305000", "194940.305000", "194941.305000", "194942.305000", "194943.305000", "194944.305000", "194945.305000", "194946.305000", "194947.305000", "194948.305000", "194949.305000", "194950.305000", "194951.305000", "194952.305000", "194953.305000", "194954.305000", "194955.305000", "194956.305000", "194957.305000", "194958.305000", "194959.305000", "195000.305000", "195001.305000", "195002.305000", "195003.305000", "195004.305000", "195005.305000", "195006.305000", "195007.305000", "195008.305000", "195009.305000", "195010.305000", "195011.305000", "195012.305000", "195013.305000", "195014.305000", "195015.305000", "195016.305000", "195017.305000", "195018.305000", "195019.305000", "195020.305000", "195021.305000", "195022.305000", "195023.305000", "195024.305000", "195025.305000", "195026.305000", "195027.305000", "195028.305000", "195029.305000", "195030.305000", "195031.305000", "195032.305000", "195033.305000", "195034.305000", "195035.305000", "195036.305000", "195037.305000", "195038.305000", "195039.305000", "195040.305000", "195041.305000", "195042.305000", "195043.305000", "195044.305000", "195045.305000", "195046.305000", "195047.305000", "195048.305000", "195049.305000", "195050.305000", "195051.305000", "195052.305000", "195053.305000", "195054.305000", "195055.305000", "195056.305000", "195057.305000", "195058.305000", "195059.305000", "195100.305000", "195101.305000", "195102.305000", "195103.305000", "195104.305000", "195105.305000", "195106.305000", "195107.305000", "195108.305000", "195109.305000", "195110.305000", "195111.305000", "195112.305000", "195113.305000", "195114.305000", "195115.305000", "195116.305000", "195117.305000", "195118.305000", "195119.305000", "195120.305000", "195121.305000", "195122.305000", "195123.305000", "195124.305000", "195125.305000", "195126.305000", "195127.305000", "195128.305000", "195129.305000", "195130.305000", "195131.305000", "195132.305000", "195133.305000", "195134.305000", "195135.305000", "195136.305000", "195137.305000", "195138.305000", "195139.305000", "195140.305000", "195141.305000", "195142.305000", "195143.305000", "195144.305000", "195145.305000", "195146.305000", "195147.305000", "195148.305000", "195149.305000", "195150.305000", "195151.305000", "195152.305000", "195153.305000", "195154.305000", "195155.305000", "195156.305000", "195157.305000", "195158.305000", "195159.305000", "195200.305000", "195201.305000", "195202.305000", "195203.305000"],
      "ContentTime": ["194310.152000", "194310.963000", "194311.975000", "194312.960000", "194313.965000", "194314.973000", "194315.928000", "194316.993000", "194317.975000", "194318.954000", "194319.954000", "194320.961000", "194321.962000", "194322.930000", "194323.961000", "194324.950000", "194325.940000", "194326.936000", "194327.956000", "194328.932000", "194329.962000", "194330.955000", "194331.993000", "194332.990000", "194333.942000", "194335.001000", "194335.943000", "194336.963000", "194337.955000", "194338.981000", "194339.960000", "194340.948000", "194341.965000", "194342.961000", "194343.994000", "194344.941000", "194345.949000", "194346.945000", "194347.975000", "194348.955000", "194349.969000", "194350.949000", "194351.958000", "194352.969000", "194353.952000", "194354.964000", "194355.973000", "194356.948000", "194357.954000", "194358.959000", "194359.980000", "194400.959000", "194401.950000", "194402.970000", "194403.960000", "194404.979000", "194405.948000", "194406.930000", "194407.962000", "194408.956000", "194409.944000", "194410.973000", "194411.949000", "194412.957000", "194413.958000", "194414.961000", "194415.951000", "194416.958000", "194417.948000", "194418.966000", "194419.965000", "194420.959000", "194421.927000", "194422.955000", "194423.939000", "194424.961000", "194425.959000", "194426.943000", "194427.956000", "194428.960000", "194429.956000", "194430.939000", "194431.972000", "194433.009000", "194433.970000", "194434.953000", "194435.966000", "194436.955000", "194437.964000", "194438.955000", "194439.977000", "194440.977000", "194441.951000", "194442.969000", "194443.949000", "194444.966000", "194445.978000", "194446.997000", "194447.957000", "194448.932000", "194449.954000", "194450.911000", "194451.954000", "194453.000000", "194453.938000", "194454.959000", "194455.946000", "194456.930000", "194457.966000", "194458.953000", "194459.965000", "194500.974000", "194501.983000", "194502.979000", "194503.959000", "194504.977000", "194506.017000", "194506.969000", "194507.985000", "194508.970000", "194509.950000", "194510.963000", "194512.001000", "194512.960000", "194513.933000", "194514.979000", "194515.961000", "194516.957000", "194517.984000", "194518.960000", "194519.961000", "194520.959000", "194521.925000", "194522.946000", "194523.978000", "194524.968000", "194525.969000", "194526.977000", "194527.972000", "194528.997000", "194529.944000", "194530.951000", "194532.060000", "194532.983000", "194533.942000", "194534.979000", "194535.969000", "194536.968000", "194537.964000", "194538.985000", "194539.973000", "194540.953000", "194541.968000", "194542.974000", "194543.969000", "194544.969000", "194545.979000", "194546.977000", "194547.973000", "194548.961000", "194549.992000", "194550.924000", "194551.971000", "194552.951000", "194553.955000", "194554.978000", "194555.968000", "194556.960000", "194557.955000", "194558.957000", "194559.946000", "194600.959000", "194602.031000", "194602.952000", "194603.969000", "194604.977000", "194605.972000", "194606.968000", "194607.958000", "194608.960000", "194609.974000", "194610.934000", "194611.935000", "194612.952000", "194613.993000", "194614.956000", "194615.947000", "194616.956000", "194617.974000", "194618.959000", "194619.931000", "194620.941000", "194621.957000", "194622.974000", "194623.975000", "194624.950000", "194625.955000", "194626.932000", "194627.961000", "194628.963000", "194629.964000", "194630.939000", "194631.984000", "194632.945000", "194633.948000", "194634.966000", "194635.955000", "194636.952000", "194637.960000", "194638.969000", "194639.974000", "194640.956000", "194641.964000", "194642.973000", "194643.968000", "194644.970000", "194645.954000", "194646.966000", "194647.992000", "194648.959000", "194649.956000", "194650.959000", "194651.970000", "194652.975000", "194653.957000", "194654.967000", "194655.963000", "194656.955000", "194657.971000", "194658.944000", "194659.978000", "194700.975000", "194702.004000", "194702.954000", "194703.950000", "194704.959000", "194705.961000", "194706.954000", "194707.931000", "194708.962000", "194709.961000", "194710.932000", "194711.964000", "194712.948000", "194713.960000", "194714.938000", "194715.945000", "194716.962000", "194717.958000", "194718.950000", "194719.955000", "194720.966000", "194721.979000", "194722.994000", "194723.970000", "194724.975000", "194725.953000", "194726.972000", "194727.956000", "194728.981000", "194729.962000", "194730.969000", "194731.976000", "194732.968000", "194733.968000", "194734.941000", "194735.958000", "194736.961000", "194737.951000", "194738.968000", "194739.938000", "194741.006000", "194741.962000", "194742.987000", "194743.942000", "194745.029000", "194745.984000", "194746.958000", "194747.960000", "194748.997000", "194749.956000", "194750.972000", "194751.965000", "194752.964000", "194753.963000", "194754.966000", "194755.956000", "194756.945000", "194757.980000", "194758.962000", "194759.971000", "194801.024000", "194801.985000", "194802.968000", "194803.960000", "194804.947000", "194805.955000", "194806.934000", "194807.939000", "194808.958000", "194809.931000", "194810.926000", "194811.961000", "194812.958000", "194813.954000", "194814.969000", "194815.947000", "194816.958000", "194817.974000", "194818.954000", "194819.960000", "194820.950000", "194821.937000", "194822.943000", "194823.921000", "194824.955000", "194825.951000", "194826.941000", "194827.954000", "194828.956000", "194829.938000", "194830.954000", "194831.954000", "194832.967000", "194833.945000", "194834.945000", "194835.963000", "194836.951000", "194837.963000", "194838.979000", "194840.010000", "194840.959000", "194841.998000", "194842.930000", "194843.955000", "194844.978000", "194846.028000", "194846.965000", "194847.936000", "194848.993000", "194849.988000", "194850.962000", "194852.032000", "194852.980000", "194853.943000", "194854.962000", "194855.950000", "194856.962000", "194857.957000", "194858.965000", "194859.958000", "194900.989000", "194901.933000", "194902.951000", "194904.031000", "194904.970000", "194905.965000", "194906.971000", "194907.992000", "194908.960000", "194909.988000", "194910.969000", "194911.968000", "194913.037000", "194914.015000", "194915.083000", "194915.966000", "194916.967000", "194917.948000", "194918.969000", "194919.952000", "194920.972000", "194921.987000", "194922.983000", "194923.950000", "194924.950000", "194925.968000", "194926.963000", "194927.966000", "194928.959000", "194929.972000", "194930.959000", "194931.969000", "194933.016000", "194933.964000", "194934.959000", "194935.940000", "194936.975000", "194937.980000", "194938.934000", "194939.969000", "194940.959000", "194941.950000", "194942.985000", "194943.939000", "194944.988000", "194945.948000", "194946.980000", "194947.967000", "194948.979000", "194949.949000", "194950.960000", "194951.946000", "194952.968000", "194953.988000", "194955.003000", "194955.993000", "194956.993000", "194957.971000", "194958.965000", "194959.958000", "195001.007000", "195001.928000", "195002.969000", "195003.978000", "195004.982000", "195005.960000", "195006.940000", "195007.957000", "195008.966000", "195009.958000", "195010.943000", "195011.956000", "195012.959000", "195013.967000", "195014.992000", "195015.949000", "195016.952000", "195017.964000", "195018.975000", "195019.977000", "195020.960000", "195021.958000", "195023.003000", "195024.019000", "195024.970000", "195025.923000", "195026.943000", "195027.956000", "195028.987000", "195029.956000", "195030.956000", "195031.970000", "195032.961000", "195033.997000", "195035.007000", "195035.958000", "195036.998000", "195037.962000", "195038.952000", "195039.972000", "195040.958000", "195041.943000", "195042.976000", "195043.961000", "195044.930000", "195045.966000", "195046.945000", "195047.970000", "195048.979000", "195049.954000", "195050.974000", "195052.003000", "195052.954000", "195053.953000", "195054.969000", "195055.962000", "195056.950000", "195057.959000", "195058.967000", "195059.962000", "195100.952000", "195101.981000", "195102.951000", "195103.948000", "195104.960000", "195105.959000", "195106.939000", "195107.952000", "195108.961000", "195109.954000", "195110.957000", "195111.955000", "195112.957000", "195113.992000", "195114.993000", "195115.963000", "195116.965000", "195117.952000", "195118.952000", "195119.954000", "195121.003000", "195121.955000", "195122.955000", "195123.958000", "195124.960000", "195125.954000", "195127.006000", "195128.016000", "195128.985000", "195129.993000", "195130.998000", "195132.008000", "195132.994000", "195134.002000", "195135.025000", "195136.031000", "195136.992000", "195138.034000", "195139.018000", "195139.986000", "195141.040000", "195142.012000", "195143.027000", "195144.031000", "195145.022000", "195146.004000", "195147.008000", "195148.050000", "195149.008000", "195150.008000", "195151.065000", "195151.991000", "195153.018000", "195154.018000", "195154.990000", "195156.048000", "195157.020000", "195158.013000", "195159.009000", "195200.019000", "195201.015000", "195202.024000", "195203.010000", "195204.001000"],
