{
  "AcquisitionMatrixPE": 96,
  "AcquisitionNumber": 1,
  "AcquisitionTime": "19:52:41.140000",
  "BandwidthPerPixelPhaseEncode": 18.939,
  "BaseResolution": 96,
  "BodyPartExamined": "BRAIN",
  "ConsistencyInfo": "N4_VE11C_LATEST_20160120",
  "ConversionSoftware": "dcm2niix",
  "ConversionSoftwareVersion": "v1.0.20190902",
  "DerivedVendorReportedEchoSpacing": 0.000550011,
  "DeviceSerialNumber": "66112",
  "DwellTime": 2.2e-06,
  "EchoTime": 0.033,
  "EchoTrainLength": 96,
  "EffectiveEchoSpacing": 0.000550011,
  "FlipAngle": 59,
  "ImageOrientationPatientDICOM": [0.998602, 0.0414864, 0.0327606, -0.0376643, 0.993248, -0.109725],
  "ImageType": [
    "ORIGINAL",
    "PRIMARY",
    "FMRI",
    "NONE",
    "ND",
    "NORM",
    "MOSAIC"
],
  "ImagingFrequency": 123.252,
  "InPlanePhaseEncodingDirectionDICOM": "COL",
  "InstitutionAddress": "Maynard_3_Hanover_NH_US_03755",
  "InstitutionName": "Dartmouth_College_-_PBS",
  "InstitutionalDepartmentName": "Department",
  "MRAcquisitionType": "2D",
  "MagneticFieldStrength": 3,
  "Manufacturer": "Siemens",
  "ManufacturersModelName": "Prisma",
  "Modality": "MR",
  "MultibandAccelerationFactor": 4,
  "PartialFourier": 1,
  "PatientPosition": "HFS",
  "PercentPhaseFOV": 100,
  "PhaseEncodingDirection": "j-",
  "PhaseEncodingSteps": 96,
  "PhaseResolution": 1,
  "PixelBandwidth": 2365,
  "ProcedureStepDescription": "Gobbini_Matteo_1037_budapest",
  "ProtocolName": "func_run-04_task-movie",
  "PulseSequenceDetails": "%SiemensSeq%_ep2d_bold",
  "ReceiveCoilActiveElements": "HEA;HEP",
  "ReceiveCoilName": "Head_32",
  "ReconMatrixPE": 96,
  "RefLinesPE": 12,
  "RepetitionTime": 1,
  "SAR": 0.0545967,
  "ScanOptions": "FS",
  "ScanningSequence": "EP",
  "SequenceName": "_epfid2d1_96",
  "SequenceVariant": "SK",
  "SeriesDescription": "func_run-04_task-movie",
  "SeriesNumber": 29,
  "ShimSetting": [4147, -7693, -7400, 656, 46, -145, -43, 30],
  "SliceThickness": 2.5,
  "SliceTiming": [0.735, 0, 0.49, 0.08, 0.57, 0.1625, 0.6525, 0.325, 0.815, 0.4075, 0.8975, 0.245, 0.735, 0, 0.49, 0.08, 0.57, 0.1625, 0.6525, 0.325, 0.815, 0.4075, 0.8975, 0.245, 0.735, 0, 0.49, 0.08, 0.57, 0.1625, 0.6525, 0.325, 0.815, 0.4075, 0.8975, 0.245, 0.735, 0, 0.49, 0.08, 0.57, 0.1625, 0.6525, 0.325, 0.815, 0.4075, 0.8975, 0.245],
  "SoftwareVersions": "syngo_MR_E11",
  "SpacingBetweenSlices": 2.5,
  "StationName": "AWP66112",
  "TaskName": "movie",
  "TotalReadoutTime": 0.0522511,
  "TxRefAmp": 248.108,
  "dcmmeta_affine": [
    [-2.496504545211792, -0.09416069090366364, 0.0927286222577095, 126.517333984375],
    [-0.1037159189581871, 2.4831204414367676, -0.2708432376384735, -100.87934112548828],
    [0.0819014236330986, 0.27431154251098633, 2.4835548400878906, -117.82860565185547],
    [0.0, 0.0, 0.0, 1.0]
],
  "dcmmeta_reorient_transform": [
    [0.0, -1.0, 0.0, 95.0],
    [1.0, 0.0, 0.0, 0.0],
    [0.0, 0.0, 1.0, 0.0],
    [0.0, 0.0, 0.0, 1.0]
],
  "dcmmeta_shape": [96, 96, 48, 618],
  "dcmmeta_slice_dim": 2,
  "dcmmeta_version": 0.6,
  "global": {
    "const": {
      "AccessionNumber": "A001331",
      "AcquisitionMatrix": [96, 0, 0, 96],
      "AngioFlag": "N",
      "BitsAllocated": 16,
      "BitsStored": 12,
      "BodyPartExamined": "BRAIN",
      "Columns": 672,
      "EchoNumbers": 1,
      "EchoTime": 33.0,
      "EchoTrainLength": 96,
      "FlipAngle": 59.0,
      "HighBit": 11,
      "ImageOrientationPatient": [0.99860183580346, 0.0414863670961, 0.03276056890734, -0.0376642777461, 0.99324816142386, -0.1097246189786],
      "ImagePositionPatient": [-809.44710649218, -880.02595815751, -36.354890017783],
      "ImageType": [
        "ORIGINAL",
        "PRIMARY",
        "FMRI",
        "NONE",
        "ND",
        "NORM",
        "MOSAIC"
],
      "ImagedNucleus": "1H",
      "ImagingFrequency": 123.252333,
      "InPlanePhaseEncodingDirection": "COL",
      "MRAcquisitionType": "2D",
      "MagneticFieldStrength": 3.0,
      "Manufacturer": "SIEMENS",
      "ManufacturerModelName": "Prisma",
      "Modality": "MR",
      "NumberOfAverages": 1.0,
      "NumberOfPhaseEncodingSteps": 96,
      "PercentPhaseFieldOfView": 100.0,
      "PercentSampling": 100.0,
      "PerformedProcedureStepStartTime": "185247.292000",
      "PhotometricInterpretation": "MONOCHROME2",
      "PixelBandwidth": 2365.0,
      "PixelRepresentation": 0,
      "PixelSpacing": [2.5, 2.5],
      "ProtocolName": "func_run-04_task-movie",
      "RepetitionTime": 1000.0,
      "Rows": 672,
      "SAR": 0.05459668549238,
      "SamplesPerPixel": 1,
      "ScanOptions": "FS",
      "ScanningSequence": "EP",
      "SequenceName": "*epfid2d1_96",
      "SequenceVariant": "SK",
      "SeriesDescription": "func_run-04_task-movie",
      "SeriesNumber": 29,
      "SeriesTime": "195242.076000",
      "SliceLocation": -101.43181851274,
      "SliceThickness": 2.5,
      "SmallestImagePixelValue": 0,
      "SoftwareVersions": "syngo MR E11",
      "SpacingBetweenSlices": 2.4999999236231,
      "SpecificCharacterSet": "ISO_IR 100",
      "StudyID": "1",
      "StudyTime": "185247.245000",
      "TransmitCoilName": "Body",
      "VariableFlipAngleFlag": "N",
      "WindowCenterWidthExplanation": "Algo1",
      "dBdt": 0.0},
    "slices": {}
  },
  "time": {
    "samples": {
      "AcquisitionNumber": [1, 2, 3, 4, 5, 6, 7, 8, 9, 10, 11, 12, 13, 14, 15, 16, 17, 18, 19, 20, 21, 22, 23, 24, 25, 26, 27, 28, 29, 30, 31, 32, 33, 34, 35, 36, 37, 38, 39, 40, 41, 42, 43, 44, 45, 46, 47, 48, 49, 50, 51, 52, 53, 54, 55, 56, 57, 58, 59, 60, 61, 62, 63, 64, 65, 66, 67, 68, 69, 70, 71, 72, 73, 74, 75, 76, 77, 78, 79, 80, 81, 82, 83, 84, 85, 86, 87, 88, 89, 90, 91, 92, 93, 94, 95, 96, 97, 98, 99, 100, 101, 102, 103, 104, 105, 106, 107, 108, 109, 110, 111, 112, 113, 114, 115, 116, 117, 118, 119, 120, 121, 122, 123, 124, 125, 126, 127, 128, 129, 130, 131, 132, 133, 134, 135, 136, 137, 138, 139, 140, 141, 142, 143, 144, 145, 146, 147, 148, 149, 150, 151, 152, 153, 154, 155, 156, 157, 158, 159, 160, 161, 162, 163, 164, 165, 166, 167, 168, 169, 170, 171, 172, 173, 174, 175, 176, 177, 178, 179, 180, 181, 182, 183, 184, 185, 186, 187, 188, 189, 190, 191, 192, 193, 194, 195, 196, 197, 198, 199, 200, 201, 202, 203, 204, 205, 206, 207, 208, 209, 210, 211, 212, 213, 214, 215, 216, 217, 218, 219, 220, 221, 222, 223, 224, 225, 226, 227, 228, 229, 230, 231, 232, 233, 234, 235, 236, 237, 238, 239, 240, 241, 242, 243, 244, 245, 246, 247, 248, 249, 250, 251, 252, 253, 254, 255, 256, 257, 258, 259, 260, 261, 262, 263, 264, 265, 266, 267, 268, 269, 270, 271, 272, 273, 274, 275, 276, 277, 278, 279, 280, 281, 282, 283, 284, 285, 286, 287, 288, 289, 290, 291, 292, 293, 294, 295, 296, 297, 298, 299, 300, 301, 302, 303, 304, 305, 306, 307, 308, 309, 310, 311, 312, 313, 314, 315, 316, 317, 318, 319, 320, 321, 322, 323, 324, 325, 326, 327, 328, 329, 330, 331, 332, 333, 334, 335, 336, 337, 338, 339, 340, 341, 342, 343, 344, 345, 346, 347, 348, 349, 350, 351, 352, 353, 354, 355, 356, 357, 358, 359, 360, 361, 362, 363, 364, 365, 366, 367, 368, 369, 370, 371, 372, 373, 374, 375, 376, 377, 378, 379, 380, 381, 382, 383, 384, 385, 386, 387, 388, 389, 390, 391, 392, 393, 394, 395, 396, 397, 398, 399, 400, 401, 402, 403, 404, 405, 406, 407, 408, 409, 410, 411, 412, 413, 414, 415, 416, 417, 418, 419, 420, 421, 422, 423, 424, 425, 426, 427, 428, 429, 430, 431, 432, 433, 434, 435, 436, 437, 438, 439, 440, 441, 442, 443, 444, 445, 446, 447, 448, 449, 450, 451, 452, 453, 454, 455, 456, 457, 458, 459, 460, 461, 462, 463, 464, 465, 466, 467, 468, 469, 470, 471, 472, 473, 474, 475, 476, 477, 478, 479, 480, 481, 482, 483, 484, 485, 486, 487, 488, 489, 490, 491, 492, 493, 494, 495, 496, 497, 498, 499, 500, 501, 502, 503, 504, 505, 506, 507, 508, 509, 510, 511, 512, 513, 514, 515, 516, 517, 518, 519, 520, 521, 522, 523, 524, 525, 526, 527, 528, 529, 530, 531, 532, 533, 534, 535, 536, 537, 538, 539, 540, 541, 542, 543, 544, 545, 546, 547, 548, 549, 550, 551, 552, 553, 554, 555, 556, 557, 558, 559, 560, 561, 562, 563, 564, 565, 566, 567, 568, 569, 570, 571, 572, 573, 574, 575, 576, 577, 578, 579, 580, 581, 582, 583, 584, 585, 586, 587, 588, 589, 590, 591, 592, 593, 594, 595, 596, 597, 598, 599, 600, 601, 602, 603, 604, 605, 606, 607, 608, 609, 610, 611, 612, 613, 614, 615, 616, 617, 618],
      "AcquisitionTime": ["195241.140000", "195242.140000", "195243.140000", "195244.140000", "195245.140000", "195246.140000", "195247.140000", "195248.140000", "195249.140000", "195250.140000", "195251.140000", "195252.140000", "195253.140000", "195254.140000", "195255.140000", "195256.140000", "195257.140000", "195258.140000", "195259.140000", "195300.140000", "195301.140000", "195302.140000", "195303.140000", "195304.140000", "195305.140000", "195306.140000", "195307.140000", "195308.140000", "195309.140000", "195310.140000", "195311.140000", "195312.140000", "195313.140000", "195314.140000", "195315.140000", "195316.140000", "195317.140000", "195318.140000", "195319.140000", "195320.140000", "195321.140000", "195322.140000", "195323.140000", "195324.140000", "195325.140000", "195326.140000", "195327.140000", "195328.140000", "195329.140000", "195330.140000", "195331.140000", "195332.140000", "195333.140000", "195334.140000", "195335.140000", "195336.140000", "195337.140000", "195338.140000", "195339.140000", "195340.140000", "195341.140000", "195342.140000", "195343.140000", "195344.140000", "195345.140000", "195346.140000", "195347.140000", "195348.140000", "195349.140000", "195350.140000", "195351.140000", "195352.140000", "195353.140000", "195354.140000", "195355.140000", "195356.140000", "195357.140000", "195358.140000", "195359.140000", "195400.140000", "195401.140000", "195402.140000", "195403.140000", "195404.140000", "195405.140000", "195406.140000", "195407.140000", "195408.140000", "195409.140000", "195410.140000", "195411.140000", "195412.140000", "195413.140000", "195414.140000", "195415.140000", "195416.140000", "195417.140000", "195418.140000", "195419.140000", "195420.140000", "195421.140000", "195422.140000", "195423.140000", "195424.140000", "195425.140000", "195426.140000", "195427.140000", "195428.140000", "195429.140000", "195430.140000", "195431.140000", "195432.140000", "195433.140000", "195434.140000", "195435.140000", "195436.140000", "195437.140000", "195438.140000", "195439.140000", "195440.140000", "195441.140000", "195442.140000", "195443.140000", "195444.140000", "195445.140000", "195446.140000", "195447.140000", "195448.140000", "195449.140000", "195450.140000", "195451.140000", "195452.140000", "195453.140000", "195454.140000", "195455.140000", "195456.140000", "195457.140000", "195458.140000", "195459.140000", "195500.140000", "195501.140000", "195502.140000", "195503.140000", "195504.140000", "195505.140000", "195506.140000", "195507.140000", "195508.140000", "195509.140000", "195510.140000", "195511.140000", "195512.140000", "195513.140000", "195514.140000", "195515.140000", "195516.140000", "195517.140000", "195518.140000", "195519.140000", "195520.140000", "195521.140000", "195522.140000", "195523.140000", "195524.140000", "195525.140000", "195526.140000", "195527.140000", "195528.140000", "195529.140000", "195530.140000", "195531.140000", "195532.140000", "195533.140000", "195534.140000", "195535.140000", "195536.140000", "195537.140000", "195538.140000", "195539.140000", "195540.140000", "195541.140000", "195542.140000", "195543.140000", "195544.140000", "195545.140000", "195546.140000", "195547.140000", "195548.140000", "195549.140000", "195550.140000", "195551.140000", "195552.140000", "195553.140000", "195554.140000", "195555.140000", "195556.140000", "195557.140000", "195558.140000", "195559.140000", "195600.140000", "195601.140000", "195602.140000", "195603.140000", "195604.140000", "195605.140000", "195606.140000", "195607.140000", "195608.140000", "195609.140000", "195610.140000", "195611.140000", "195612.140000", "195613.140000", "195614.140000", "195615.140000", "195616.140000", "195617.140000", "195618.140000", "195619.140000", "195620.140000", "195621.140000", "195622.140000", "195623.140000", "195624.140000", "195625.140000", "195626.140000", "195627.140000", "195628.140000", "195629.140000", "195630.140000", "195631.140000", "195632.140000", "195633.140000", "195634.140000", "195635.140000", "195636.140000", "195637.140000", "195638.140000", "195639.140000", "195640.140000", "195641.140000", "195642.140000", "195643.140000", "195644.140000", "195645.140000", "195646.140000", "195647.140000", "195648.140000", "195649.140000", "195650.140000", "195651.140000", "195652.140000", "195653.140000", "195654.140000", "195655.140000", "195656.140000", "195657.140000", "195658.140000", "195659.140000", "195700.140000", "195701.140000", "195702.140000", "195703.140000", "195704.140000", "195705.140000", "195706.140000", "195707.140000", "195708.140000", "195709.140000", "195710.140000", "195711.140000", "195712.140000", "195713.140000", "195714.140000", "195715.140000", "195716.140000", "195717.140000", "195718.140000", "195719.140000", "195720.140000", "195721.140000", "195722.140000", "195723.140000", "195724.140000", "195725.140000", "195726.140000", "195727.140000", "195728.140000", "195729.140000", "195730.140000", "195731.140000", "195732.140000", "195733.140000", "195734.140000", "195735.140000", "195736.140000", "195737.140000", "195738.140000", "195739.140000", "195740.140000", "195741.140000", "195742.140000", "195743.140000", "195744.140000", "195745.140000", "195746.140000", "195747.140000", "195748.140000", "195749.140000", "195750.140000", "195751.140000", "195752.140000", "195753.140000", "195754.140000", "195755.140000", "195756.140000", "195757.140000", "195758.140000", "195759.140000", "195800.140000", "195801.140000", "195802.140000", "195803.140000", "195804.140000", "195805.140000", "195806.140000", "195807.140000", "195808.140000", "195809.140000", "195810.140000", "195811.140000", "195812.140000", "195813.140000", "195814.140000", "195815.140000", "195816.140000", "195817.140000", "195818.140000", "195819.140000", "195820.140000", "195821.140000", "195822.140000", "195823.140000", "195824.140000", "195825.140000", "195826.140000", "195827.140000", "195828.140000", "195829.140000", "195830.140000", "195831.140000", "195832.140000", "195833.140000", "195834.140000", "195835.140000", "195836.140000", "195837.140000", "195838.140000", "195839.140000", "195840.140000", "195841.140000", "195842.140000", "195843.140000", "195844.140000", "195845.140000", "195846.140000", "195847.140000", "195848.140000", "195849.140000", "195850.140000", "195851.140000", "195852.140000", "195853.140000", "195854.140000", "195855.140000", "195856.140000", "195857.140000", "195858.140000", "195859.140000", "195900.140000", "195901.140000", "195902.140000", "195903.140000", "195904.140000", "195905.140000", "195906.140000", "195907.140000", "195908.140000", "195909.140000", "195910.140000", "195911.140000", "195912.140000", "195913.140000", "195914.140000", "195915.140000", "195916.140000", "195917.140000", "195918.140000", "195919.140000", "195920.140000", "195921.140000", "195922.140000", "195923.140000", "195924.140000", "195925.140000", "195926.140000", "195927.140000", "195928.140000", "195929.140000", "195930.140000", "195931.140000", "195932.140000", "195933.140000", "195934.140000", "195935.140000", "195936.140000", "195937.140000", "195938.140000", "195939.140000", "195940.140000", "195941.140000", "195942.140000", "195943.140000", "195944.140000", "195945.140000", "195946.140000", "195947.140000", "195948.140000", "195949.140000", "195950.140000", "195951.140000", "195952.140000", "195953.140000", "195954.140000", "195955.140000", "195956.140000", "195957.140000", "195958.140000", "195959.140000", "200000.140000", "200001.140000", "200002.140000", "200003.140000", "200004.140000", "200005.140000", "200006.140000", "200007.140000", "200008.140000", "200009.140000", "200010.140000", "200011.140000", "200012.140000", "200013.140000", "200014.140000", "200015.140000", "200016.140000", "200017.140000", "200018.140000", "200019.140000", "200020.140000", "200021.140000", "200022.140000", "200023.140000", "200024.140000", "200025.140000", "200026.140000", "200027.140000", "200028.140000", "200029.140000", "200030.140000", "200031.140000", "200032.140000", "200033.140000", "200034.140000", "200035.140000", "200036.140000", "200037.140000", "200038.140000", "200039.140000", "200040.140000", "200041.140000", "200042.140000", "200043.140000", "200044.140000", "200045.140000", "200046.140000", "200047.140000", "200048.140000", "200049.140000", "200050.140000", "200051.140000", "200052.140000", "200053.140000", "200054.140000", "200055.140000", "200056.140000", "200057.140000", "200058.140000", "200059.140000", "200100.140000", "200101.140000", "200102.140000", "200103.140000", "200104.140000", "200105.140000", "200106.140000", "200107.140000", "200108.140000", "200109.140000", "200110.140000", "200111.140000", "200112.140000", "200113.140000", "200114.140000", "200115.140000", "200116.140000", "200117.140000", "200118.140000", "200119.140000", "200120.140000", "200121.140000", "200122.140000", "200123.140000", "200124.140000", "200125.140000", "200126.140000", "200127.140000", "200128.140000", "200129.140000", "200130.140000", "200131.140000", "200132.140000", "200133.140000", "200134.140000", "200135.140000", "200136.140000", "200137.140000", "200138.140000", "200139.140000", "200140.140000", "200141.140000", "200142.140000", "200143.140000", "200144.140000", "200145.140000", "200146.140000", "200147.140000", "200148.140000", "200149.140000", "200150.140000", "200151.140000", "200152.140000", "200153.140000", "200154.140000", "200155.140000", "200156.140000", "200157.140000", "200158.140000", "200159.140000", "200200.140000", "200201.140000", "200202.140000", "200203.140000", "200204.140000", "200205.140000", "200206.140000", "200207.140000", "200208.140000", "200209.140000", "200210.140000", "200211.140000", "200212.140000", "200213.140000", "200214.140000", "200215.140000", "200216.140000", "200217.140000", "200218.140000", "200219.140000", "200220.140000", "200221.140000", "200222.140000", "200223.140000", "200224.140000", "200225.140000", "200226.140000", "200227.140000", "200228.140000", "200229.140000", "200230.140000", "200231.140000", "200232.140000", "200233.140000", "200234.140000", "200235.140000", "200236.140000", "200237.140000", "200238.140000", "200239.140000", "200240.140000", "200241.140000", "200242.140000", "200243.140000", "200244.140000", "200245.140000", "200246.140000", "200247.140000", "200248.140000", "200249.140000", "200250.140000", "200251.140000", "200252.140000", "200253.140000", "200254.140000", "200255.140000", "200256.140000", "200257.140000", "200258.140000"],
      "ContentTime": ["195242.079000", "195242.939000", "195243.917000", "195244.922000", "195245.899000", "195246.914000", "195247.909000", "195248.891000", "195249.904000", "195250.913000", "195251.909000", "195252.914000", "195253.888000", "195254.891000", "195255.901000", "195256.913000", "195257.900000", "195258.901000", "195259.890000", "195300.913000", "195301.941000", "195302.969000", "195303.903000", "195304.934000", "195305.889000", "195306.937000", "195307.937000", "195308.906000", "195309.915000", "195310.901000", "195311.889000", "195312.887000", "195313.893000", "195314.900000", "195315.894000", "195316.934000", "195317.901000", "195318.932000", "195319.909000", "195320.896000", "195321.883000", "195322.901000", "195323.926000", "195324.896000", "195325.902000", "195326.904000", "195327.913000", "195328.891000", "195329.896000", "195330.908000", "195331.901000", "195332.912000", "195333.936000", "195334.909000", "195335.928000", "195336.912000", "195337.927000", "195338.918000", "195339.908000", "195340.895000", "195341.912000", "195342.907000", "195343.918000", "195344.933000", "195345.889000", "195346.921000", "195347.929000", "195348.883000", "195349.886000", "195350.916000", "195351.924000", "195352.892000", "195353.901000", "195354.891000", "195355.927000", "195356.916000", "195357.908000", "195358.894000", "195359.906000", "195400.899000", "195401.895000", "195402.908000", "195403.913000", "195404.898000", "195405.900000", "195406.911000", "195407.914000", "195408.928000", "195409.908000", "195410.928000", "195411.913000", "195412.895000", "195413.884000", "195414.905000", "195415.908000", "195416.917000", "195417.892000", "195418.911000", "195419.889000", "195420.894000", "195421.926000", "195422.894000", "195423.954000", "195424.918000", "195425.915000", "195426.909000", "195427.928000", "195428.918000", "195429.910000", "195430.901000", "195431.935000", "195432.921000", "195433.898000", "195434.914000", "195435.930000", "195436.923000", "195437.904000", "195438.916000", "195439.913000", "195440.912000", "195441.907000", "195442.917000", "195443.898000", "195444.892000", "195445.899000", "195446.921000", "195447.899000", "195448.922000", "195449.918000", "195450.906000", "195451.910000", "195452.922000", "195453.913000", "195454.889000", "195455.924000", "195456.903000", "195457.920000", "195458.904000", "195459.915000", "195500.936000", "195501.893000", "195502.921000", "195503.916000", "195504.920000", "195505.892000", "195506.935000", "195507.904000", "195508.916000", "195509.921000", "195510.903000", "195511.930000", "195512.915000", "195513.933000", "195514.939000", "195515.940000", "195516.919000", "195517.894000", "195518.913000", "195519.905000", "195520.920000", "195521.910000", "195522.889000", "195523.898000", "195524.910000", "195525.916000", "195526.895000", "195527.944000", "195528.910000", "195529.925000", "195530.931000", "195531.907000", "195532.914000", "195533.911000", "195534.921000", "195535.909000", "195536.901000", "195537.901000", "195538.899000", "195539.919000", "195540.914000", "195541.907000", "195542.926000", "195543.941000", "195544.906000", "195545.915000", "195546.900000", "195547.876000", "195548.925000", "195549.920000", "195550.924000", "195551.949000", "195552.933000", "195553.919000", "195554.907000", "195555.918000", "195556.930000", "195557.949000", "195558.952000", "195600.000000", "195600.913000", "195601.874000", "195602.906000", "195603.890000", "195604.941000", "195605.919000", "195606.914000", "195607.892000", "195608.910000", "195609.908000", "195610.928000", "195611.915000", "195612.926000", "195613.921000", "195614.914000", "195615.919000", "195616.895000", "195617.898000", "195618.913000", "195619.917000", "195620.900000", "195621.933000", "195622.923000", "195623.915000", "195624.931000", "195625.908000", "195626.876000", "195627.946000", "195628.937000", "195629.894000", "195630.894000", "195631.920000", "195632.903000", "195633.936000", "195634.924000", "195635.949000", "195636.905000", "195637.942000", "195638.918000", "195639.909000", "195640.929000", "195641.904000", "195642.887000", "195643.950000", "195644.908000", "195645.922000", "195646.907000", "195647.876000", "195648.927000", "195649.897000", "195650.900000", "195651.906000", "195652.913000", "195653.899000", "195654.920000", "195655.898000", "195656.911000", "195657.912000", "195658.915000", "195659.913000", "195700.925000", "195701.924000", "195702.918000", "195703.890000", "195704.909000", "195705.927000", "195706.905000", "195707.899000", "195708.924000", "195709.913000", "195710.901000", "195711.919000", "195712.898000", "195713.904000", "195714.988000", "195715.912000", "195716.924000", "195717.923000", "195718.883000", "195719.903000", "195720.907000", "195721.907000", "195722.905000", "195723.923000", "195724.906000", "195725.865000", "195726.918000", "195727.898000", "195728.919000", "195729.895000", "195730.912000", "195731.889000", "195732.897000", "195733.934000", "195734.916000", "195735.912000", "195736.880000", "195737.973000", "195738.907000", "195739.907000", "195740.936000", "195741.928000", "195742.902000", "195743.907000", "195744.914000", "195745.927000", "195746.902000", "195747.896000", "195748.955000", "195749.925000", "195750.942000", "195751.934000", "195752.952000", "195753.890000", "195754.901000", "195755.911000", "195756.902000", "195757.902000", "195758.947000", "195759.913000", "195800.877000", "195801.909000", "195802.941000", "195803.907000", "195804.916000", "195805.921000", "195806.991000", "195807.921000", "195808.904000", "195809.907000", "195810.918000", "195811.907000", "195812.917000", "195813.913000", "195814.915000", "195815.897000", "195816.918000", "195817.911000", "195818.917000", "195819.917000", "195820.923000", "195821.918000", "195822.969000", "195823.904000", "195824.920000", "195825.912000", "195826.901000", "195827.904000", "195828.908000", "195829.972000", "195830.913000", "195831.923000", "195832.893000", "195833.905000", "195834.929000", "195835.946000", "195836.911000", "195837.904000", "195838.901000", "195839.915000", "195840.900000", "195841.913000", "195842.977000", "195843.912000", "195844.913000", "195845.916000", "195846.904000", "195847.926000", "195848.920000", "195849.948000", "195850.956000", "195851.934000", "195852.930000", "195853.972000", "195854.924000", "195855.910000", "195856.908000", "195857.913000", "195858.911000", "195859.945000", "195900.923000", "195901.904000", "195902.938000", "195903.945000", "195904.900000", "195905.911000", "195906.896000", "195907.911000", "195908.885000", "195909.901000", "195910.899000", "195911.907000", "195912.940000", "195913.937000", "195914.918000", "195915.917000", "195916.908000", "195917.892000", "195918.925000", "195919.907000", "195920.925000", "195921.911000", "195922.905000", "195923.903000", "195924.877000", "195925.901000", "195926.913000", "195927.912000", "195928.915000", "195929.910000", "195930.911000", "195931.920000", "195932.931000", "195933.949000", "195934.936000", "195935.892000", "195936.914000", "195937.932000", "195938.927000", "195939.900000", "195940.892000", "195941.904000", "195942.933000", "195943.896000", "195944.930000", "195945.912000", "195946.959000", "195947.886000", "195948.901000", "195949.919000", "195950.905000", "195951.898000", "195952.906000", "195953.955000", "195954.925000", "195955.901000", "195956.923000", "195957.904000", "195958.915000", "195959.909000", "200000.900000", "200001.926000", "200002.897000", "200003.888000", "200004.893000", "200005.889000", "200006.946000", "200007.937000", "200008.919000", "200009.916000", "200010.886000", "200011.895000", "200012.917000", "200013.959000", "200014.912000", "200015.913000", "200016.902000", "200017.911000", "200018.901000", "200019.902000", "200020.914000", "200021.893000", "200022.903000", "200023.900000", "200024.901000", "200025.883000", "200026.874000", "200027.907000", "200028.915000", "200029.931000", "200030.891000", "200031.924000", "200032.991000", "200033.994000", "200034.908000", "200035.935000", "200036.910000", "200037.905000", "200038.900000", "200039.874000", "200040.929000", "200041.905000", "200042.913000", "200043.918000", "200044.888000", "200045.910000", "200046.901000", "200048.051000", "200048.921000", "200049.908000", "200050.911000", "200051.901000", "200052.885000", "200053.901000", "200054.906000", "200055.916000", "200056.896000", "200057.918000", "200058.905000", "200059.884000", "200100.912000", "200101.882000", "200102.906000", "200103.914000", "200104.916000", "200105.902000", "200106.902000", "200107.907000", "200108.892000", "200109.889000", "200110.893000", "200111.906000", "200112.907000", "200113.908000", "200114.882000", "200115.925000", "200116.894000", "200117.881000", "200118.902000", "200119.907000", "200120.909000", "200121.900000", "200122.990000", "200123.908000", "200124.915000", "200125.918000", "200126.905000", "200127.937000", "200128.951000", "200129.918000", "200130.912000", "200131.903000", "200132.985000", "200133.925000", "200134.899000", "200135.899000", "200136.916000", "200137.909000", "200138.946000", "200139.894000", "200140.898000", "200141.901000", "200142.892000", "200143.907000", "200144.950000", "200145.888000", "200146.893000", "200147.903000", "200148.882000", "200149.926000", "200150.937000", "200151.876000", "200152.894000", "200153.924000", "200154.910000", "200155.898000", "200156.902000", "200157.901000", "200158.931000", "200159.919000", "200200.905000", "200201.909000", "200202.881000", "200203.941000", "200204.905000", "200205.882000", "200206.907000", "200207.920000", "200208.883000", "200209.905000", "200210.922000", "200211.918000", "200212.933000", "200213.901000", "200214.926000", "200215.919000", "200216.926000", "200217.906000", "200218.946000", "200219.890000", "200220.916000", "200221.902000", "200222.889000", "200223.903000", "200224.910000", "200225.905000", "200226.961000", "200227.877000", "200228.922000", "200229.894000", "200230.938000", "200231.916000", "200232.899000", "200233.910000", "200234.915000", "200235.944000", "200236.890000", "200237.941000", "200238.891000", "200239.890000", "200240.912000", "200241.892000", "200242.917000", "200243.898000", "200244.939000", "200245.891000", "200246.882000", "200247.898000", "200248.901000", "200249.943000", "200250.938000", "200251.897000", "200252.914000", "200253.911000", "200254.926000", "200255.918000", "200256.979000", "200257.952000", "200258.957000"],
