{
  "AcquisitionMatrixPE": 96,
  "AcquisitionNumber": 1,
  "AcquisitionTime": "20:58:56.705000",
  "BandwidthPerPixelPhaseEncode": 18.939,
  "BaseResolution": 96,
  "BodyPartExamined": "BRAIN",
  "ConsistencyInfo": "N4_VE11C_LATEST_20160120",
  "ConversionSoftware": "dcm2niix",
  "ConversionSoftwareVersion": "v1.0.20190902",
  "DerivedVendorReportedEchoSpacing": 0.000550011,
  "DeviceSerialNumber": "66112",
  "DwellTime": 2.2e-06,
  "EchoTime": 0.033,
  "EchoTrainLength": 96,
  "EffectiveEchoSpacing": 0.000550011,
  "FlipAngle": 59,
  "ImageOrientationPatientDICOM": [0.999669, 0.024135, 0.00894413, -0.0240822, 0.999692, -0.00595718],
  "ImageType": [
    "ORIGINAL",
    "PRIMARY",
    "FMRI",
    "NONE",
    "ND",
    "NORM",
    "MOSAIC"
],
  "ImagingFrequency": 123.252,
  "InPlanePhaseEncodingDirectionDICOM": "COL",
  "InstitutionAddress": "Maynard_3_Hanover_NH_US_03755",
  "InstitutionName": "Dartmouth_College_-_PBS",
  "InstitutionalDepartmentName": "Department",
  "MRAcquisitionType": "2D",
  "MagneticFieldStrength": 3,
  "Manufacturer": "Siemens",
  "ManufacturersModelName": "Prisma",
  "Modality": "MR",
  "MultibandAccelerationFactor": 4,
  "PartialFourier": 1,
  "PatientPosition": "HFS",
  "PercentPhaseFOV": 100,
  "PhaseEncodingDirection": "j-",
  "PhaseEncodingSteps": 96,
  "PhaseResolution": 1,
  "PixelBandwidth": 2365,
  "ProcedureStepDescription": "Gobbini_Matteo_1037_budapest",
  "ProtocolName": "func_run-05_task-movie",
  "PulseSequenceDetails": "%SiemensSeq%_ep2d_bold",
  "ReceiveCoilActiveElements": "HEA;HEP",
  "ReceiveCoilName": "Head_32",
  "ReconMatrixPE": 96,
  "RefLinesPE": 12,
  "RepetitionTime": 1,
  "SAR": 0.0533351,
  "ScanOptions": "FS",
  "ScanningSequence": "EP",
  "SequenceName": "_epfid2d1_96",
  "SequenceVariant": "SK",
  "SeriesDescription": "func_run-05_task-movie",
  "SeriesNumber": 36,
  "ShimSetting": [4137, -7688, -7287, 516, -24, 109, 79, 79],
  "SliceThickness": 2.5,
  "SliceTiming": [0.735, 0, 0.49, 0.08, 0.57, 0.1625, 0.6525, 0.325, 0.815, 0.4075, 0.8975, 0.245, 0.735, 0, 0.49, 0.08, 0.57, 0.1625, 0.6525, 0.325, 0.815, 0.4075, 0.8975, 0.245, 0.735, 0, 0.49, 0.08, 0.57, 0.1625, 0.6525, 0.325, 0.815, 0.4075, 0.8975, 0.245, 0.735, 0, 0.49, 0.08, 0.57, 0.1625, 0.6525, 0.325, 0.815, 0.4075, 0.8975, 0.245],
  "SoftwareVersions": "syngo_MR_E11",
  "SpacingBetweenSlices": 2.5,
  "StationName": "AWP66112",
  "TaskName": "movie",
  "TotalReadoutTime": 0.0522511,
  "TxRefAmp": 246.713,
  "dcmmeta_affine": [
    [-2.499171733856201, -0.060205571353435516, 0.02271287888288498, 127.28321075439453],
    [-0.06033739820122719, 2.4992306232452393, -0.014349520206451416, -103.46067810058594],
    [0.022360321134328842, 0.014892940409481525, 2.4998555183410645, -57.07918930053711],
    [0.0, 0.0, 0.0, 1.0]
],
  "dcmmeta_reorient_transform": [
    [0.0, -1.0, 0.0, 95.0],
    [1.0, 0.0, 0.0, 0.0],
    [0.0, 0.0, 1.0, 0.0],
    [0.0, 0.0, 0.0, 1.0]
],
  "dcmmeta_shape": [96, 96, 48, 803],
  "dcmmeta_slice_dim": 2,
  "dcmmeta_version": 0.6,
  "global": {
    "const": {
      "AccessionNumber": "A001091",
      "AcquisitionMatrix": [96, 0, 0, 96],
      "AngioFlag": "N",
      "BitsAllocated": 16,
      "BitsStored": 12,
      "BodyPartExamined": "BRAIN",
      "Columns": 672,
      "EchoNumbers": 1,
      "EchoTime": 33.0,
      "EchoTrainLength": 96,
      "FlipAngle": 59.0,
      "HighBit": 11,
      "ImageOrientationPatient": [0.99966869826184, 0.02413495987316, 0.00894412809588, -0.0240822286372, 0.9996922317972, -0.0059571761944],
      "ImagePositionPatient": [-823.98593730684, -871.12180416076, -57.814966873864],
      "ImageType": [
        "ORIGINAL",
        "PRIMARY",
        "FMRI",
        "NONE",
        "ND",
        "NORM",
        "MOSAIC"
],
      "ImagedNucleus": "1H",
      "ImagingFrequency": 123.252321,
      "InPlanePhaseEncodingDirection": "COL",
      "MRAcquisitionType": "2D",
      "MagneticFieldStrength": 3.0,
      "Manufacturer": "SIEMENS",
      "ManufacturerModelName": "Prisma",
      "Modality": "MR",
      "NumberOfAverages": 1.0,
      "NumberOfPhaseEncodingSteps": 96,
      "PercentPhaseFieldOfView": 100.0,
      "PercentSampling": 100.0,
      "PerformedProcedureStepStartTime": "195906.991000",
      "PhotometricInterpretation": "MONOCHROME2",
      "PixelBandwidth": 2365.0,
      "PixelRepresentation": 0,
      "PixelSpacing": [2.5, 2.5],
      "ProtocolName": "func_run-05_task-movie",
      "RepetitionTime": 1000.0,
      "Rows": 672,
      "SAR": 0.05333505501316,
      "SamplesPerPixel": 1,
      "ScanOptions": "FS",
      "ScanningSequence": "EP",
      "SequenceName": "*epfid2d1_96",
      "SequenceVariant": "SK",
      "SeriesDescription": "func_run-05_task-movie",
      "SeriesNumber": 36,
      "SeriesTime": "205857.824000",
      "SliceLocation": -55.325663170615,
      "SliceThickness": 2.5,
      "SmallestImagePixelValue": 0,
      "SoftwareVersions": "syngo MR E11",
      "SpacingBetweenSlices": 2.4999999704986,
      "SpecificCharacterSet": "ISO_IR 100",
      "StudyID": "1",
      "StudyTime": "195906.934000",
      "TransmitCoilName": "Body",
      "VariableFlipAngleFlag": "N",
      "WindowCenterWidthExplanation": "Algo1",
      "dBdt": 0.0},
    "slices": {}
  },
  "time": {
    "samples": {
      "AcquisitionNumber": [1, 2, 3, 4, 5, 6, 7, 8, 9, 10, 11, 12, 13, 14, 15, 16, 17, 18, 19, 20, 21, 22, 23, 24, 25, 26, 27, 28, 29, 30, 31, 32, 33, 34, 35, 36, 37, 38, 39, 40, 41, 42, 43, 44, 45, 46, 47, 48, 49, 50, 51, 52, 53, 54, 55, 56, 57, 58, 59, 60, 61, 62, 63, 64, 65, 66, 67, 68, 69, 70, 71, 72, 73, 74, 75, 76, 77, 78, 79, 80, 81, 82, 83, 84, 85, 86, 87, 88, 89, 90, 91, 92, 93, 94, 95, 96, 97, 98, 99, 100, 101, 102, 103, 104, 105, 106, 107, 108, 109, 110, 111, 112, 113, 114, 115, 116, 117, 118, 119, 120, 121, 122, 123, 124, 125, 126, 127, 128, 129, 130, 131, 132, 133, 134, 135, 136, 137, 138, 139, 140, 141, 142, 143, 144, 145, 146, 147, 148, 149, 150, 151, 152, 153, 154, 155, 156, 157, 158, 159, 160, 161, 162, 163, 164, 165, 166, 167, 168, 169, 170, 171, 172, 173, 174, 175, 176, 177, 178, 179, 180, 181, 182, 183, 184, 185, 186, 187, 188, 189, 190, 191, 192, 193, 194, 195, 196, 197, 198, 199, 200, 201, 202, 203, 204, 205, 206, 207, 208, 209, 210, 211, 212, 213, 214, 215, 216, 217, 218, 219, 220, 221, 222, 223, 224, 225, 226, 227, 228, 229, 230, 231, 232, 233, 234, 235, 236, 237, 238, 239, 240, 241, 242, 243, 244, 245, 246, 247, 248, 249, 250, 251, 252, 253, 254, 255, 256, 257, 258, 259, 260, 261, 262, 263, 264, 265, 266, 267, 268, 269, 270, 271, 272, 273, 274, 275, 276, 277, 278, 279, 280, 281, 282, 283, 284, 285, 286, 287, 288, 289, 290, 291, 292, 293, 294, 295, 296, 297, 298, 299, 300, 301, 302, 303, 304, 305, 306, 307, 308, 309, 310, 311, 312, 313, 314, 315, 316, 317, 318, 319, 320, 321, 322, 323, 324, 325, 326, 327, 328, 329, 330, 331, 332, 333, 334, 335, 336, 337, 338, 339, 340, 341, 342, 343, 344, 345, 346, 347, 348, 349, 350, 351, 352, 353, 354, 355, 356, 357, 358, 359, 360, 361, 362, 363, 364, 365, 366, 367, 368, 369, 370, 371, 372, 373, 374, 375, 376, 377, 378, 379, 380, 381, 382, 383, 384, 385, 386, 387, 388, 389, 390, 391, 392, 393, 394, 395, 396, 397, 398, 399, 400, 401, 402, 403, 404, 405, 406, 407, 408, 409, 410, 411, 412, 413, 414, 415, 416, 417, 418, 419, 420, 421, 422, 423, 424, 425, 426, 427, 428, 429, 430, 431, 432, 433, 434, 435, 436, 437, 438, 439, 440, 441, 442, 443, 444, 445, 446, 447, 448, 449, 450, 451, 452, 453, 454, 455, 456, 457, 458, 459, 460, 461, 462, 463, 464, 465, 466, 467, 468, 469, 470, 471, 472, 473, 474, 475, 476, 477, 478, 479, 480, 481, 482, 483, 484, 485, 486, 487, 488, 489, 490, 491, 492, 493, 494, 495, 496, 497, 498, 499, 500, 501, 502, 503, 504, 505, 506, 507, 508, 509, 510, 511, 512, 513, 514, 515, 516, 517, 518, 519, 520, 521, 522, 523, 524, 525, 526, 527, 528, 529, 530, 531, 532, 533, 534, 535, 536, 537, 538, 539, 540, 541, 542, 543, 544, 545, 546, 547, 548, 549, 550, 551, 552, 553, 554, 555, 556, 557, 558, 559, 560, 561, 562, 563, 564, 565, 566, 567, 568, 569, 570, 571, 572, 573, 574, 575, 576, 577, 578, 579, 580, 581, 582, 583, 584, 585, 586, 587, 588, 589, 590, 591, 592, 593, 594, 595, 596, 597, 598, 599, 600, 601, 602, 603, 604, 605, 606, 607, 608, 609, 610, 611, 612, 613, 614, 615, 616, 617, 618, 619, 620, 621, 622, 623, 624, 625, 626, 627, 628, 629, 630, 631, 632, 633, 634, 635, 636, 637, 638, 639, 640, 641, 642, 643, 644, 645, 646, 647, 648, 649, 650, 651, 652, 653, 654, 655, 656, 657, 658, 659, 660, 661, 662, 663, 664, 665, 666, 667, 668, 669, 670, 671, 672, 673, 674, 675, 676, 677, 678, 679, 680, 681, 682, 683, 684, 685, 686, 687, 688, 689, 690, 691, 692, 693, 694, 695, 696, 697, 698, 699, 700, 701, 702, 703, 704, 705, 706, 707, 708, 709, 710, 711, 712, 713, 714, 715, 716, 717, 718, 719, 720, 721, 722, 723, 724, 725, 726, 727, 728, 729, 730, 731, 732, 733, 734, 735, 736, 737, 738, 739, 740, 741, 742, 743, 744, 745, 746, 747, 748, 749, 750, 751, 752, 753, 754, 755, 756, 757, 758, 759, 760, 761, 762, 763, 764, 765, 766, 767, 768, 769, 770, 771, 772, 773, 774, 775, 776, 777, 778, 779, 780, 781, 782, 783, 784, 785, 786, 787, 788, 789, 790, 791, 792, 793, 794, 795, 796, 797, 798, 799, 800, 801, 802, 803],
      "AcquisitionTime": ["205856.705000", "205857.705000", "205858.705000", "205859.705000", "205900.705000", "205901.705000", "205902.705000", "205903.705000", "205904.705000", "205905.705000", "205906.705000", "205907.705000", "205908.705000", "205909.705000", "205910.705000", "205911.705000", "205912.705000", "205913.705000", "205914.705000", "205915.705000", "205916.705000", "205917.705000", "205918.705000", "205919.705000", "205920.705000", "205921.705000", "205922.705000", "205923.705000", "205924.705000", "205925.705000", "205926.705000", "205927.705000", "205928.705000", "205929.705000", "205930.705000", "205931.705000", "205932.705000", "205933.705000", "205934.705000", "205935.705000", "205936.705000", "205937.705000", "205938.705000", "205939.705000", "205940.705000", "205941.705000", "205942.705000", "205943.705000", "205944.705000", "205945.705000", "205946.705000", "205947.705000", "205948.705000", "205949.705000", "205950.705000", "205951.705000", "205952.705000", "205953.705000", "205954.705000", "205955.705000", "205956.705000", "205957.705000", "205958.705000", "205959.705000", "210000.705000", "210001.705000", "210002.705000", "210003.705000", "210004.705000", "210005.705000", "210006.705000", "210007.705000", "210008.705000", "210009.705000", "210010.705000", "210011.705000", "210012.705000", "210013.705000", "210014.705000", "210015.705000", "210016.705000", "210017.705000", "210018.705000", "210019.705000", "210020.705000", "210021.705000", "210022.705000", "210023.705000", "210024.705000", "210025.705000", "210026.705000", "210027.705000", "210028.705000", "210029.705000", "210030.705000", "210031.705000", "210032.705000", "210033.705000", "210034.705000", "210035.705000", "210036.705000", "210037.705000", "210038.705000", "210039.705000", "210040.705000", "210041.705000", "210042.705000", "210043.705000", "210044.705000", "210045.705000", "210046.705000", "210047.705000", "210048.705000", "210049.705000", "210050.705000", "210051.705000", "210052.705000", "210053.705000", "210054.705000", "210055.705000", "210056.705000", "210057.705000", "210058.705000", "210059.705000", "210100.705000", "210101.705000", "210102.705000", "210103.705000", "210104.705000", "210105.705000", "210106.705000", "210107.705000", "210108.705000", "210109.705000", "210110.705000", "210111.705000", "210112.705000", "210113.705000", "210114.705000", "210115.705000", "210116.705000", "210117.705000", "210118.705000", "210119.705000", "210120.705000", "210121.705000", "210122.705000", "210123.705000", "210124.705000", "210125.705000", "210126.705000", "210127.705000", "210128.705000", "210129.705000", "210130.705000", "210131.705000", "210132.705000", "210133.705000", "210134.705000", "210135.705000", "210136.705000", "210137.705000", "210138.705000", "210139.705000", "210140.705000", "210141.705000", "210142.705000", "210143.705000", "210144.705000", "210145.705000", "210146.705000", "210147.705000", "210148.705000", "210149.705000", "210150.705000", "210151.705000", "210152.705000", "210153.705000", "210154.705000", "210155.705000", "210156.705000", "210157.705000", "210158.705000", "210159.705000", "210200.705000", "210201.705000", "210202.705000", "210203.705000", "210204.705000", "210205.705000", "210206.705000", "210207.705000", "210208.705000", "210209.705000", "210210.705000", "210211.705000", "210212.705000", "210213.705000", "210214.705000", "210215.705000", "210216.705000", "210217.705000", "210218.705000", "210219.705000", "210220.705000", "210221.705000", "210222.705000", "210223.705000", "210224.705000", "210225.705000", "210226.705000", "210227.705000", "210228.705000", "210229.705000", "210230.705000", "210231.705000", "210232.705000", "210233.705000", "210234.705000", "210235.705000", "210236.705000", "210237.705000", "210238.705000", "210239.705000", "210240.705000", "210241.705000", "210242.705000", "210243.705000", "210244.705000", "210245.705000", "210246.705000", "210247.705000", "210248.705000", "210249.705000", "210250.705000", "210251.705000", "210252.705000", "210253.705000", "210254.705000", "210255.705000", "210256.705000", "210257.705000", "210258.705000", "210259.705000", "210300.705000", "210301.705000", "210302.705000", "210303.705000", "210304.705000", "210305.705000", "210306.705000", "210307.705000", "210308.705000", "210309.705000", "210310.705000", "210311.705000", "210312.705000", "210313.705000", "210314.705000", "210315.705000", "210316.705000", "210317.705000", "210318.705000", "210319.705000", "210320.705000", "210321.705000", "210322.705000", "210323.705000", "210324.705000", "210325.705000", "210326.705000", "210327.705000", "210328.705000", "210329.705000", "210330.705000", "210331.705000", "210332.705000", "210333.705000", "210334.705000", "210335.705000", "210336.705000", "210337.705000", "210338.705000", "210339.705000", "210340.705000", "210341.705000", "210342.705000", "210343.705000", "210344.705000", "210345.705000", "210346.705000", "210347.705000", "210348.705000", "210349.705000", "210350.705000", "210351.705000", "210352.705000", "210353.705000", "210354.705000", "210355.705000", "210356.705000", "210357.705000", "210358.705000", "210359.705000", "210400.705000", "210401.705000", "210402.705000", "210403.705000", "210404.705000", "210405.705000", "210406.705000", "210407.705000", "210408.705000", "210409.705000", "210410.705000", "210411.705000", "210412.705000", "210413.705000", "210414.705000", "210415.705000", "210416.705000", "210417.705000", "210418.705000", "210419.705000", "210420.705000", "210421.705000", "210422.705000", "210423.705000", "210424.705000", "210425.705000", "210426.705000", "210427.705000", "210428.705000", "210429.705000", "210430.705000", "210431.705000", "210432.705000", "210433.705000", "210434.705000", "210435.705000", "210436.705000", "210437.705000", "210438.705000", "210439.705000", "210440.705000", "210441.705000", "210442.705000", "210443.705000", "210444.705000", "210445.705000", "210446.705000", "210447.705000", "210448.705000", "210449.705000", "210450.705000", "210451.705000", "210452.705000", "210453.705000", "210454.705000", "210455.705000", "210456.705000", "210457.705000", "210458.705000", "210459.705000", "210500.705000", "210501.705000", "210502.705000", "210503.705000", "210504.705000", "210505.705000", "210506.705000", "210507.705000", "210508.705000", "210509.705000", "210510.705000", "210511.705000", "210512.705000", "210513.705000", "210514.705000", "210515.705000", "210516.705000", "210517.705000", "210518.705000", "210519.705000", "210520.705000", "210521.705000", "210522.705000", "210523.705000", "210524.705000", "210525.705000", "210526.705000", "210527.705000", "210528.705000", "210529.705000", "210530.705000", "210531.705000", "210532.705000", "210533.705000", "210534.705000", "210535.705000", "210536.705000", "210537.705000", "210538.705000", "210539.705000", "210540.705000", "210541.705000", "210542.705000", "210543.705000", "210544.705000", "210545.705000", "210546.705000", "210547.705000", "210548.705000", "210549.705000", "210550.705000", "210551.705000", "210552.705000", "210553.705000", "210554.705000", "210555.705000", "210556.705000", "210557.705000", "210558.705000", "210559.705000", "210600.705000", "210601.705000", "210602.705000", "210603.705000", "210604.705000", "210605.705000", "210606.705000", "210607.705000", "210608.705000", "210609.705000", "210610.705000", "210611.705000", "210612.705000", "210613.705000", "210614.705000", "210615.705000", "210616.705000", "210617.705000", "210618.705000", "210619.705000", "210620.705000", "210621.705000", "210622.705000", "210623.705000", "210624.705000", "210625.705000", "210626.705000", "210627.705000", "210628.705000", "210629.705000", "210630.705000", "210631.705000", "210632.705000", "210633.705000", "210634.705000", "210635.705000", "210636.705000", "210637.705000", "210638.705000", "210639.705000", "210640.705000", "210641.705000", "210642.705000", "210643.705000", "210644.705000", "210645.705000", "210646.705000", "210647.705000", "210648.705000", "210649.705000", "210650.705000", "210651.705000", "210652.705000", "210653.705000", "210654.705000", "210655.705000", "210656.705000", "210657.705000", "210658.705000", "210659.705000", "210700.705000", "210701.705000", "210702.705000", "210703.705000", "210704.705000", "210705.705000", "210706.705000", "210707.705000", "210708.705000", "210709.705000", "210710.705000", "210711.705000", "210712.705000", "210713.705000", "210714.705000", "210715.705000", "210716.705000", "210717.705000", "210718.705000", "210719.705000", "210720.705000", "210721.705000", "210722.705000", "210723.705000", "210724.705000", "210725.705000", "210726.705000", "210727.705000", "210728.705000", "210729.705000", "210730.705000", "210731.705000", "210732.705000", "210733.705000", "210734.705000", "210735.705000", "210736.705000", "210737.705000", "210738.705000", "210739.705000", "210740.705000", "210741.705000", "210742.705000", "210743.705000", "210744.705000", "210745.705000", "210746.705000", "210747.705000", "210748.705000", "210749.705000", "210750.705000", "210751.705000", "210752.705000", "210753.705000", "210754.705000", "210755.705000", "210756.705000", "210757.705000", "210758.705000", "210759.705000", "210800.705000", "210801.705000", "210802.705000", "210803.705000", "210804.705000", "210805.705000", "210806.705000", "210807.705000", "210808.705000", "210809.705000", "210810.705000", "210811.705000", "210812.705000", "210813.705000", "210814.705000", "210815.705000", "210816.705000", "210817.705000", "210818.705000", "210819.705000", "210820.705000", "210821.705000", "210822.705000", "210823.705000", "210824.705000", "210825.705000", "210826.705000", "210827.705000", "210828.705000", "210829.705000", "210830.705000", "210831.705000", "210832.705000", "210833.705000", "210834.705000", "210835.705000", "210836.705000", "210837.705000", "210838.705000", "210839.705000", "210840.705000", "210841.705000", "210842.705000", "210843.705000", "210844.705000", "210845.705000", "210846.705000", "210847.705000", "210848.705000", "210849.705000", "210850.705000", "210851.705000", "210852.705000", "210853.705000", "210854.705000", "210855.705000", "210856.705000", "210857.705000", "210858.705000", "210859.705000", "210900.705000", "210901.705000", "210902.705000", "210903.705000", "210904.705000", "210905.705000", "210906.705000", "210907.705000", "210908.705000", "210909.705000", "210910.705000", "210911.705000", "210912.705000", "210913.705000", "210914.705000", "210915.705000", "210916.705000", "210917.705000", "210918.705000", "210919.705000", "210920.705000", "210921.705000", "210922.705000", "210923.705000", "210924.705000", "210925.705000", "210926.705000", "210927.705000", "210928.705000", "210929.705000", "210930.705000", "210931.705000", "210932.705000", "210933.705000", "210934.705000", "210935.705000", "210936.705000", "210937.705000", "210938.705000", "210939.705000", "210940.705000", "210941.705000", "210942.705000", "210943.705000", "210944.705000", "210945.705000", "210946.705000", "210947.705000", "210948.705000", "210949.705000", "210950.705000", "210951.705000", "210952.705000", "210953.705000", "210954.705000", "210955.705000", "210956.705000", "210957.705000", "210958.705000", "210959.705000", "211000.705000", "211001.705000", "211002.705000", "211003.705000", "211004.705000", "211005.705000", "211006.705000", "211007.705000", "211008.705000", "211009.705000", "211010.705000", "211011.705000", "211012.705000", "211013.705000", "211014.705000", "211015.705000", "211016.705000", "211017.705000", "211018.705000", "211019.705000", "211020.705000", "211021.705000", "211022.705000", "211023.705000", "211024.705000", "211025.705000", "211026.705000", "211027.705000", "211028.705000", "211029.705000", "211030.705000", "211031.705000", "211032.705000", "211033.705000", "211034.705000", "211035.705000", "211036.705000", "211037.705000", "211038.705000", "211039.705000", "211040.705000", "211041.705000", "211042.705000", "211043.705000", "211044.705000", "211045.705000", "211046.705000", "211047.705000", "211048.705000", "211049.705000", "211050.705000", "211051.705000", "211052.705000", "211053.705000", "211054.705000", "211055.705000", "211056.705000", "211057.705000", "211058.705000", "211059.705000", "211100.705000", "211101.705000", "211102.705000", "211103.705000", "211104.705000", "211105.705000", "211106.705000", "211107.705000", "211108.705000", "211109.705000", "211110.705000", "211111.705000", "211112.705000", "211113.705000", "211114.705000", "211115.705000", "211116.705000", "211117.705000", "211118.705000", "211119.705000", "211120.705000", "211121.705000", "211122.705000", "211123.705000", "211124.705000", "211125.705000", "211126.705000", "211127.705000", "211128.705000", "211129.705000", "211130.705000", "211131.705000", "211132.705000", "211133.705000", "211134.705000", "211135.705000", "211136.705000", "211137.705000", "211138.705000", "211139.705000", "211140.705000", "211141.705000", "211142.705000", "211143.705000", "211144.705000", "211145.705000", "211146.705000", "211147.705000", "211148.705000", "211149.705000", "211150.705000", "211151.705000", "211152.705000", "211153.705000", "211154.705000", "211155.705000", "211156.705000", "211157.705000", "211158.705000", "211159.705000", "211200.705000", "211201.705000", "211202.705000", "211203.705000", "211204.705000", "211205.705000", "211206.705000", "211207.705000", "211208.705000", "211209.705000", "211210.705000", "211211.705000", "211212.705000", "211213.705000", "211214.705000", "211215.705000", "211216.705000", "211217.705000", "211218.705000"],
