{
  "AcquisitionMatrixPE": 96,
  "AcquisitionNumber": 1,
  "AcquisitionTime": "20:29:20.530000",
  "BandwidthPerPixelPhaseEncode": 18.939,
  "BaseResolution": 96,
  "BodyPartExamined": "BRAIN",
  "ConsistencyInfo": "N4_VE11C_LATEST_20160120",
  "ConversionSoftware": "dcm2niix",
  "ConversionSoftwareVersion": "v1.0.20190902",
  "DerivedVendorReportedEchoSpacing": 0.000550011,
  "DeviceSerialNumber": "66112",
  "DwellTime": 2.2e-06,
  "EchoTime": 0.033,
  "EchoTrainLength": 96,
  "EffectiveEchoSpacing": 0.000550011,
  "FlipAngle": 59,
  "ImageOrientationPatientDICOM": [0.999669, 0.024135, 0.00894413, -0.0240822, 0.999692, -0.00595718],
  "ImageType": [
    "ORIGINAL",
    "PRIMARY",
    "FMRI",
    "NONE",
    "ND",
    "NORM",
    "MOSAIC"
],
  "ImagingFrequency": 123.252,
  "InPlanePhaseEncodingDirectionDICOM": "COL",
  "InstitutionAddress": "Maynard_3_Hanover_NH_US_03755",
  "InstitutionName": "Dartmouth_College_-_PBS",
  "InstitutionalDepartmentName": "Department",
  "MRAcquisitionType": "2D",
  "MagneticFieldStrength": 3,
  "Manufacturer": "Siemens",
  "ManufacturersModelName": "Prisma",
  "Modality": "MR",
  "MultibandAccelerationFactor": 4,
  "PartialFourier": 1,
  "PatientPosition": "HFS",
  "PercentPhaseFOV": 100,
  "PhaseEncodingDirection": "j-",
  "PhaseEncodingSteps": 96,
  "PhaseResolution": 1,
  "PixelBandwidth": 2365,
  "ProcedureStepDescription": "Gobbini_Matteo_1037_budapest",
  "ProtocolName": "func_run-02_task-movie",
  "PulseSequenceDetails": "%SiemensSeq%_ep2d_bold",
  "ReceiveCoilActiveElements": "HEA;HEP",
  "ReceiveCoilName": "Head_32",
  "ReconMatrixPE": 96,
  "RefLinesPE": 12,
  "RepetitionTime": 1,
  "SAR": 0.0532037,
  "ScanOptions": "FS",
  "ScanningSequence": "EP",
  "SequenceName": "_epfid2d1_96",
  "SequenceVariant": "SK",
  "SeriesDescription": "func_run-02_task-movie",
  "SeriesNumber": 15,
  "ShimSetting": [4137, -7688, -7287, 516, -24, 109, 79, 79],
  "SliceThickness": 2.5,
  "SliceTiming": [0.735, 0, 0.49, 0.0825, 0.5725, 0.1625, 0.6525, 0.3275, 0.8175, 0.4075, 0.8975, 0.245, 0.735, 0, 0.49, 0.0825, 0.5725, 0.1625, 0.6525, 0.3275, 0.8175, 0.4075, 0.8975, 0.245, 0.735, 0, 0.49, 0.0825, 0.5725, 0.1625, 0.6525, 0.3275, 0.8175, 0.4075, 0.8975, 0.245, 0.735, 0, 0.49, 0.0825, 0.5725, 0.1625, 0.6525, 0.3275, 0.8175, 0.4075, 0.8975, 0.245],
  "SoftwareVersions": "syngo_MR_E11",
  "SpacingBetweenSlices": 2.5,
  "StationName": "AWP66112",
  "TaskName": "movie",
  "TotalReadoutTime": 0.0522511,
  "TxRefAmp": 246.713,
  "dcmmeta_affine": [
    [-2.499171733856201, -0.060205571353435516, 0.02271287888288498, 127.28321075439453],
    [-0.06033739820122719, 2.4992306232452393, -0.014349520206451416, -103.46067810058594],
    [0.022360321134328842, 0.014892940409481525, 2.4998555183410645, -57.07918930053711],
    [0.0, 0.0, 0.0, 1.0]
],
  "dcmmeta_reorient_transform": [
    [0.0, -1.0, 0.0, 95.0],
    [1.0, 0.0, 0.0, 0.0],
    [0.0, 0.0, 1.0, 0.0],
    [0.0, 0.0, 0.0, 1.0]
],
  "dcmmeta_shape": [96, 96, 48, 498],
  "dcmmeta_slice_dim": 2,
  "dcmmeta_version": 0.6,
  "global": {
    "const": {
      "AccessionNumber": "A001091",
      "AcquisitionMatrix": [96, 0, 0, 96],
      "AngioFlag": "N",
      "BitsAllocated": 16,
      "BitsStored": 12,
      "BodyPartExamined": "BRAIN",
      "Columns": 672,
      "EchoNumbers": 1,
      "EchoTime": 33.0,
      "EchoTrainLength": 96,
      "FlipAngle": 59.0,
      "HighBit": 11,
      "ImageOrientationPatient": [0.99966869826184, 0.02413495987316, 0.00894412809588, -0.0240822286372, 0.9996922317972, -0.0059571761944],
      "ImagePositionPatient": [-823.98593730684, -871.12180416076, -57.814966873864],
      "ImageType": [
        "ORIGINAL",
        "PRIMARY",
        "FMRI",
        "NONE",
        "ND",
        "NORM",
        "MOSAIC"
],
      "ImagedNucleus": "1H",
      "ImagingFrequency": 123.252312,
      "InPlanePhaseEncodingDirection": "COL",
      "MRAcquisitionType": "2D",
      "MagneticFieldStrength": 3.0,
      "Manufacturer": "SIEMENS",
      "ManufacturerModelName": "Prisma",
      "Modality": "MR",
      "NumberOfAverages": 1.0,
      "NumberOfPhaseEncodingSteps": 96,
      "PercentPhaseFieldOfView": 100.0,
      "PercentSampling": 100.0,
      "PerformedProcedureStepStartTime": "195906.991000",
      "PhotometricInterpretation": "MONOCHROME2",
      "PixelBandwidth": 2365.0,
      "PixelRepresentation": 0,
      "PixelSpacing": [2.5, 2.5],
      "ProtocolName": "func_run-02_task-movie",
      "RepetitionTime": 1000.0,
      "Rows": 672,
      "SAR": 0.05320370116037,
      "SamplesPerPixel": 1,
      "ScanOptions": "FS",
      "ScanningSequence": "EP",
      "SequenceName": "*epfid2d1_96",
      "SequenceVariant": "SK",
      "SeriesDescription": "func_run-02_task-movie",
      "SeriesNumber": 15,
      "SeriesTime": "202921.643000",
      "SliceLocation": -55.325663170615,
      "SliceThickness": 2.5,
      "SmallestImagePixelValue": 0,
      "SoftwareVersions": "syngo MR E11",
      "SpacingBetweenSlices": 2.4999999704986,
      "SpecificCharacterSet": "ISO_IR 100",
      "StudyID": "1",
      "StudyTime": "195906.934000",
      "TransmitCoilName": "Body",
      "VariableFlipAngleFlag": "N",
      "WindowCenterWidthExplanation": "Algo1",
      "dBdt": 0.0},
    "slices": {}
  },
  "time": {
    "samples": {
      "AcquisitionNumber": [1, 2, 3, 4, 5, 6, 7, 8, 9, 10, 11, 12, 13, 14, 15, 16, 17, 18, 19, 20, 21, 22, 23, 24, 25, 26, 27, 28, 29, 30, 31, 32, 33, 34, 35, 36, 37, 38, 39, 40, 41, 42, 43, 44, 45, 46, 47, 48, 49, 50, 51, 52, 53, 54, 55, 56, 57, 58, 59, 60, 61, 62, 63, 64, 65, 66, 67, 68, 69, 70, 71, 72, 73, 74, 75, 76, 77, 78, 79, 80, 81, 82, 83, 84, 85, 86, 87, 88, 89, 90, 91, 92, 93, 94, 95, 96, 97, 98, 99, 100, 101, 102, 103, 104, 105, 106, 107, 108, 109, 110, 111, 112, 113, 114, 115, 116, 117, 118, 119, 120, 121, 122, 123, 124, 125, 126, 127, 128, 129, 130, 131, 132, 133, 134, 135, 136, 137, 138, 139, 140, 141, 142, 143, 144, 145, 146, 147, 148, 149, 150, 151, 152, 153, 154, 155, 156, 157, 158, 159, 160, 161, 162, 163, 164, 165, 166, 167, 168, 169, 170, 171, 172, 173, 174, 175, 176, 177, 178, 179, 180, 181, 182, 183, 184, 185, 186, 187, 188, 189, 190, 191, 192, 193, 194, 195, 196, 197, 198, 199, 200, 201, 202, 203, 204, 205, 206, 207, 208, 209, 210, 211, 212, 213, 214, 215, 216, 217, 218, 219, 220, 221, 222, 223, 224, 225, 226, 227, 228, 229, 230, 231, 232, 233, 234, 235, 236, 237, 238, 239, 240, 241, 242, 243, 244, 245, 246, 247, 248, 249, 250, 251, 252, 253, 254, 255, 256, 257, 258, 259, 260, 261, 262, 263, 264, 265, 266, 267, 268, 269, 270, 271, 272, 273, 274, 275, 276, 277, 278, 279, 280, 281, 282, 283, 284, 285, 286, 287, 288, 289, 290, 291, 292, 293, 294, 295, 296, 297, 298, 299, 300, 301, 302, 303, 304, 305, 306, 307, 308, 309, 310, 311, 312, 313, 314, 315, 316, 317, 318, 319, 320, 321, 322, 323, 324, 325, 326, 327, 328, 329, 330, 331, 332, 333, 334, 335, 336, 337, 338, 339, 340, 341, 342, 343, 344, 345, 346, 347, 348, 349, 350, 351, 352, 353, 354, 355, 356, 357, 358, 359, 360, 361, 362, 363, 364, 365, 366, 367, 368, 369, 370, 371, 372, 373, 374, 375, 376, 377, 378, 379, 380, 381, 382, 383, 384, 385, 386, 387, 388, 389, 390, 391, 392, 393, 394, 395, 396, 397, 398, 399, 400, 401, 402, 403, 404, 405, 406, 407, 408, 409, 410, 411, 412, 413, 414, 415, 416, 417, 418, 419, 420, 421, 422, 423, 424, 425, 426, 427, 428, 429, 430, 431, 432, 433, 434, 435, 436, 437, 438, 439, 440, 441, 442, 443, 444, 445, 446, 447, 448, 449, 450, 451, 452, 453, 454, 455, 456, 457, 458, 459, 460, 461, 462, 463, 464, 465, 466, 467, 468, 469, 470, 471, 472, 473, 474, 475, 476, 477, 478, 479, 480, 481, 482, 483, 484, 485, 486, 487, 488, 489, 490, 491, 492, 493, 494, 495, 496, 497, 498],
      "AcquisitionTime": ["202920.530000", "202921.530000", "202922.530000", "202923.530000", "202924.530000", "202925.530000", "202926.530000", "202927.530000", "202928.530000", "202929.530000", "202930.530000", "202931.530000", "202932.530000", "202933.530000", "202934.530000", "202935.530000", "202936.530000", "202937.530000", "202938.530000", "202939.530000", "202940.530000", "202941.530000", "202942.530000", "202943.530000", "202944.530000", "202945.530000", "202946.530000", "202947.530000", "202948.530000", "202949.530000", "202950.530000", "202951.530000", "202952.530000", "202953.530000", "202954.530000", "202955.530000", "202956.530000", "202957.530000", "202958.530000", "202959.530000", "203000.530000", "203001.530000", "203002.530000", "203003.530000", "203004.530000", "203005.530000", "203006.530000", "203007.530000", "203008.530000", "203009.530000", "203010.530000", "203011.530000", "203012.530000", "203013.530000", "203014.530000", "203015.530000", "203016.530000", "203017.530000", "203018.530000", "203019.530000", "203020.530000", "203021.530000", "203022.530000", "203023.530000", "203024.530000", "203025.530000", "203026.530000", "203027.530000", "203028.530000", "203029.530000", "203030.530000", "203031.530000", "203032.530000", "203033.530000", "203034.530000", "203035.530000", "203036.530000", "203037.530000", "203038.530000", "203039.530000", "203040.530000", "203041.530000", "203042.530000", "203043.530000", "203044.530000", "203045.530000", "203046.530000", "203047.530000", "203048.530000", "203049.530000", "203050.530000", "203051.530000", "203052.530000", "203053.530000", "203054.530000", "203055.530000", "203056.530000", "203057.530000", "203058.530000", "203059.530000", "203100.530000", "203101.530000", "203102.530000", "203103.530000", "203104.530000", "203105.530000", "203106.530000", "203107.530000", "203108.530000", "203109.530000", "203110.530000", "203111.530000", "203112.530000", "203113.530000", "203114.530000", "203115.530000", "203116.530000", "203117.530000", "203118.530000", "203119.530000", "203120.530000", "203121.530000", "203122.530000", "203123.530000", "203124.530000", "203125.530000", "203126.530000", "203127.530000", "203128.530000", "203129.530000", "203130.530000", "203131.530000", "203132.530000", "203133.530000", "203134.530000", "203135.530000", "203136.530000", "203137.530000", "203138.530000", "203139.530000", "203140.530000", "203141.530000", "203142.530000", "203143.530000", "203144.530000", "203145.530000", "203146.530000", "203147.530000", "203148.530000", "203149.530000", "203150.530000", "203151.530000", "203152.530000", "203153.530000", "203154.530000", "203155.530000", "203156.530000", "203157.530000", "203158.530000", "203159.530000", "203200.530000", "203201.530000", "203202.530000", "203203.530000", "203204.530000", "203205.530000", "203206.530000", "203207.530000", "203208.530000", "203209.530000", "203210.530000", "203211.530000", "203212.530000", "203213.530000", "203214.530000", "203215.530000", "203216.530000", "203217.530000", "203218.530000", "203219.530000", "203220.530000", "203221.530000", "203222.530000", "203223.530000", "203224.530000", "203225.530000", "203226.530000", "203227.530000", "203228.530000", "203229.530000", "203230.530000", "203231.530000", "203232.530000", "203233.530000", "203234.530000", "203235.530000", "203236.530000", "203237.530000", "203238.530000", "203239.530000", "203240.530000", "203241.530000", "203242.530000", "203243.530000", "203244.530000", "203245.530000", "203246.530000", "203247.530000", "203248.530000", "203249.530000", "203250.530000", "203251.530000", "203252.530000", "203253.530000", "203254.530000", "203255.530000", "203256.530000", "203257.530000", "203258.530000", "203259.530000", "203300.530000", "203301.530000", "203302.530000", "203303.530000", "203304.530000", "203305.530000", "203306.530000", "203307.530000", "203308.530000", "203309.530000", "203310.530000", "203311.530000", "203312.530000", "203313.530000", "203314.530000", "203315.530000", "203316.530000", "203317.530000", "203318.530000", "203319.530000", "203320.530000", "203321.530000", "203322.530000", "203323.530000", "203324.530000", "203325.530000", "203326.530000", "203327.530000", "203328.530000", "203329.530000", "203330.530000", "203331.530000", "203332.530000", "203333.530000", "203334.530000", "203335.530000", "203336.530000", "203337.530000", "203338.530000", "203339.530000", "203340.530000", "203341.530000", "203342.530000", "203343.530000", "203344.530000", "203345.530000", "203346.530000", "203347.530000", "203348.530000", "203349.530000", "203350.530000", "203351.530000", "203352.530000", "203353.530000", "203354.530000", "203355.530000", "203356.530000", "203357.530000", "203358.530000", "203359.530000", "203400.530000", "203401.530000", "203402.530000", "203403.530000", "203404.530000", "203405.530000", "203406.530000", "203407.530000", "203408.530000", "203409.530000", "203410.530000", "203411.530000", "203412.530000", "203413.530000", "203414.530000", "203415.530000", "203416.530000", "203417.530000", "203418.530000", "203419.530000", "203420.530000", "203421.530000", "203422.530000", "203423.530000", "203424.530000", "203425.530000", "203426.530000", "203427.530000", "203428.530000", "203429.530000", "203430.530000", "203431.530000", "203432.530000", "203433.530000", "203434.530000", "203435.530000", "203436.530000", "203437.530000", "203438.530000", "203439.530000", "203440.530000", "203441.530000", "203442.530000", "203443.530000", "203444.530000", "203445.530000", "203446.530000", "203447.530000", "203448.530000", "203449.530000", "203450.530000", "203451.530000", "203452.530000", "203453.530000", "203454.530000", "203455.530000", "203456.530000", "203457.530000", "203458.530000", "203459.530000", "203500.530000", "203501.530000", "203502.530000", "203503.530000", "203504.530000", "203505.530000", "203506.530000", "203507.530000", "203508.530000", "203509.530000", "203510.530000", "203511.530000", "203512.530000", "203513.530000", "203514.530000", "203515.530000", "203516.530000", "203517.530000", "203518.530000", "203519.530000", "203520.530000", "203521.530000", "203522.530000", "203523.530000", "203524.530000", "203525.530000", "203526.530000", "203527.530000", "203528.530000", "203529.530000", "203530.530000", "203531.530000", "203532.530000", "203533.530000", "203534.530000", "203535.530000", "203536.530000", "203537.530000", "203538.530000", "203539.530000", "203540.530000", "203541.530000", "203542.530000", "203543.530000", "203544.530000", "203545.530000", "203546.530000", "203547.530000", "203548.530000", "203549.530000", "203550.530000", "203551.530000", "203552.530000", "203553.530000", "203554.530000", "203555.530000", "203556.530000", "203557.530000", "203558.530000", "203559.530000", "203600.530000", "203601.530000", "203602.530000", "203603.530000", "203604.530000", "203605.530000", "203606.530000", "203607.530000", "203608.530000", "203609.530000", "203610.530000", "203611.530000", "203612.530000", "203613.530000", "203614.530000", "203615.530000", "203616.530000", "203617.530000", "203618.530000", "203619.530000", "203620.530000", "203621.530000", "203622.530000", "203623.530000", "203624.530000", "203625.530000", "203626.530000", "203627.530000", "203628.530000", "203629.530000", "203630.530000", "203631.530000", "203632.530000", "203633.530000", "203634.530000", "203635.530000", "203636.530000", "203637.530000", "203638.530000", "203639.530000", "203640.530000", "203641.530000", "203642.530000", "203643.530000", "203644.530000", "203645.530000", "203646.530000", "203647.530000", "203648.530000", "203649.530000", "203650.530000", "203651.530000", "203652.530000", "203653.530000", "203654.530000", "203655.530000", "203656.530000", "203657.530000", "203658.530000", "203659.530000", "203700.530000", "203701.530000", "203702.530000", "203703.530000", "203704.530000", "203705.530000", "203706.530000", "203707.530000", "203708.530000", "203709.530000", "203710.530000", "203711.530000", "203712.530000", "203713.530000", "203714.530000", "203715.530000", "203716.530000", "203717.530000", "203718.530000", "203719.530000", "203720.530000", "203721.530000", "203722.530000", "203723.530000", "203724.530000", "203725.530000", "203726.530000", "203727.530000", "203728.530000", "203729.530000", "203730.530000", "203731.530000", "203732.530000", "203733.530000", "203734.530000", "203735.530000", "203736.530000", "203737.530000"],
      "ContentTime": ["202921.647000", "202922.492000", "202923.514000", "202924.501000", "202925.524000", "202926.510000", "202927.479000", "202928.516000", "202929.494000", "202930.483000", "202931.498000", "202932.476000", "202933.470000", "202934.473000", "202935.471000", "202936.480000", "202937.475000", "202938.489000", "202939.479000", "202940.474000", "202941.471000", "202942.470000", "202943.483000", "202944.481000", "202945.521000", "202946.512000", "202947.452000", "202948.495000", "202949.484000", "202950.480000", "202951.486000", "202952.485000", "202953.468000", "202954.471000", "202955.465000", "202956.469000", "202957.461000", "202958.534000", "202959.483000", "203000.502000", "203001.500000", "203002.523000", "203003.483000", "203004.483000", "203005.484000", "203006.501000", "203007.482000", "203008.491000", "203009.489000", "203010.488000", "203011.505000", "203012.493000", "203013.490000", "203014.495000", "203015.496000", "203016.492000", "203017.476000", "203018.491000", "203019.477000", "203020.490000", "203021.489000", "203022.515000", "203023.488000", "203024.496000", "203025.475000", "203026.483000", "203027.477000", "203028.493000", "203029.498000", "203030.501000", "203031.536000", "203032.463000", "203033.477000", "203034.505000", "203035.487000", "203036.490000", "203037.501000", "203038.486000", "203039.493000", "203040.467000", "203041.473000", "203042.530000", "203043.456000", "203044.474000", "203045.451000", "203046.514000", "203047.507000", "203048.487000", "203049.479000", "203050.485000", "203051.509000", "203052.485000", "203053.495000", "203054.470000", "203055.487000", "203056.457000", "203057.465000", "203058.467000", "203059.468000", "203100.475000", "203101.478000", "203102.503000", "203103.479000", "203104.507000", "203105.495000", "203106.493000", "203107.500000", "203108.484000", "203109.485000", "203110.491000", "203111.471000", "203112.489000", "203113.475000", "203114.498000", "203115.481000", "203116.478000", "203117.496000", "203118.501000", "203119.486000", "203120.495000", "203121.499000", "203122.534000", "203123.491000", "203124.522000", "203125.491000", "203126.481000", "203127.521000", "203128.497000", "203129.492000", "203130.469000", "203131.484000", "203132.495000", "203133.499000", "203134.490000", "203135.492000", "203136.467000", "203137.498000", "203138.523000", "203139.492000", "203140.513000", "203141.483000", "203142.486000", "203143.473000", "203144.531000", "203145.473000", "203146.503000", "203147.491000", "203148.486000", "203149.490000", "203150.531000", "203151.507000", "203152.498000", "203153.472000", "203154.487000", "203155.520000", "203156.498000", "203157.470000", "203158.493000", "203159.534000", "203200.491000", "203201.515000", "203202.485000", "203203.511000", "203204.498000", "203205.487000", "203206.483000", "203207.520000", "203208.492000", "203209.507000", "203210.521000", "203211.499000", "203212.482000", "203213.494000", "203214.496000", "203215.467000", "203216.477000", "203217.542000", "203218.507000", "203219.495000", "203220.472000", "203221.450000", "203222.475000", "203223.484000", "203224.479000", "203225.493000", "203226.510000", "203227.486000", "203228.472000", "203229.497000", "203230.466000", "203231.486000", "203232.488000", "203233.470000", "203234.503000", "203235.489000", "203236.510000", "203237.469000", "203238.524000", "203239.528000", "203240.519000", "203241.484000", "203242.459000", "203243.495000", "203244.506000", "203245.507000", "203246.494000", "203247.484000", "203248.477000", "203249.493000", "203250.494000", "203251.472000", "203252.484000", "203253.485000", "203254.505000", "203255.479000", "203256.479000", "203257.463000", "203258.475000", "203259.493000", "203300.505000", "203301.478000", "203302.484000", "203303.491000", "203304.496000", "203305.449000", "203306.488000", "203307.486000", "203308.456000", "203309.484000", "203310.491000", "203311.488000", "203312.481000", "203313.464000", "203314.482000", "203315.486000", "203316.497000", "203317.558000", "203318.500000", "203319.484000", "203320.490000", "203321.474000", "203322.491000", "203323.479000", "203324.487000", "203325.456000", "203326.467000", "203327.489000", "203328.476000", "203329.517000", "203330.481000", "203331.501000", "203332.493000", "203333.486000", "203334.477000", "203335.481000", "203336.497000", "203337.473000", "203338.491000", "203339.509000", "203340.473000", "203341.489000", "203342.480000", "203343.512000", "203344.482000", "203345.498000", "203346.487000", "203347.478000", "203348.496000", "203349.505000", "203350.479000", "203351.475000", "203352.480000", "203353.482000", "203354.474000", "203355.494000", "203356.484000", "203357.504000", "203358.495000", "203359.483000", "203400.471000", "203401.481000", "203402.498000", "203403.501000", "203404.490000", "203405.509000", "203406.491000", "203407.472000", "203408.473000", "203409.474000", "203410.480000", "203411.490000", "203412.500000", "203413.480000", "203414.495000", "203415.478000", "203416.479000", "203417.485000", "203418.472000", "203419.480000", "203420.482000", "203421.470000", "203422.468000", "203423.507000", "203424.479000", "203425.439000", "203426.494000", "203427.481000", "203428.493000", "203429.498000", "203430.488000", "203431.464000", "203432.484000", "203433.481000", "203434.496000", "203435.485000", "203436.492000", "203437.486000", "203438.460000", "203439.496000", "203440.496000", "203441.501000", "203442.496000", "203443.475000", "203444.481000", "203445.487000", "203446.480000", "203447.484000", "203448.481000", "203449.459000", "203450.493000", "203451.501000", "203452.519000", "203453.549000", "203454.489000", "203455.543000", "203456.510000", "203457.471000", "203458.459000", "203459.571000", "203500.444000", "203501.528000", "203502.492000", "203503.548000", "203504.474000", "203505.501000", "203506.513000", "203507.510000", "203508.516000", "203509.495000", "203510.492000", "203511.478000", "203512.483000", "203513.489000", "203514.548000", "203515.478000", "203516.512000", "203517.474000", "203518.470000", "203519.473000", "203520.497000", "203521.516000", "203522.464000", "203523.491000", "203524.528000", "203525.458000", "203526.486000", "203527.474000", "203528.478000", "203529.476000", "203530.488000", "203531.480000", "203532.469000", "203533.487000", "203534.505000", "203535.481000", "203536.505000", "203537.465000", "203538.485000", "203539.497000", "203540.492000", "203541.483000", "203542.518000", "203543.497000", "203544.483000", "203545.445000", "203546.501000", "203547.463000", "203548.503000", "203549.493000", "203550.537000", "203551.509000", "203552.494000", "203553.485000", "203554.492000", "203555.496000", "203556.496000", "203557.513000", "203558.452000", "203559.459000", "203600.507000", "203601.507000", "203602.490000", "203603.473000", "203604.469000", "203605.485000", "203606.475000", "203607.489000", "203608.489000", "203609.497000", "203610.478000", "203611.474000", "203612.508000", "203613.491000", "203614.494000", "203615.466000", "203616.459000", "203617.487000", "203618.527000", "203619.540000", "203620.533000", "203621.526000", "203622.477000", "203623.509000", "203624.513000", "203625.507000", "203626.519000", "203627.522000", "203628.500000", "203629.509000", "203630.512000", "203631.510000", "203632.500000", "203633.480000", "203634.496000", "203635.473000", "203636.480000", "203637.517000", "203638.491000", "203639.461000", "203640.501000", "203641.510000", "203642.473000", "203643.489000", "203644.531000", "203645.467000", "203646.490000", "203647.485000", "203648.495000", "203649.542000", "203650.473000", "203651.495000", "203652.501000", "203653.519000", "203654.484000", "203655.490000", "203656.460000", "203657.458000", "203658.469000", "203659.481000", "203700.493000", "203701.461000", "203702.477000", "203703.498000", "203704.469000", "203705.493000", "203706.490000", "203707.457000", "203708.475000", "203709.474000", "203710.477000", "203711.473000", "203712.440000", "203713.478000", "203714.488000", "203715.489000", "203716.480000", "203717.466000", "203718.503000", "203719.482000", "203720.497000", "203721.479000", "203722.555000", "203723.493000", "203724.531000", "203725.489000", "203726.442000", "203727.487000", "203728.478000", "203729.493000", "203730.507000", "203731.476000", "203732.465000", "203733.472000", "203734.464000", "203735.471000", "203736.471000", "203737.494000", "203738.501000"],
