{
  "AcquisitionMatrixPE": 96,
  "AcquisitionNumber": 1,
  "AcquisitionTime": "20:38:30.800000",
  "BandwidthPerPixelPhaseEncode": 18.939,
  "BaseResolution": 96,
  "BodyPartExamined": "BRAIN",
  "ConsistencyInfo": "N4_VE11C_LATEST_20160120",
  "ConversionSoftware": "dcm2niix",
  "ConversionSoftwareVersion": "v1.0.20190902",
  "DerivedVendorReportedEchoSpacing": 0.000550011,
  "DeviceSerialNumber": "66112",
  "DwellTime": 2.2e-06,
  "EchoTime": 0.033,
  "EchoTrainLength": 96,
  "EffectiveEchoSpacing": 0.000550011,
  "FlipAngle": 59,
  "ImageOrientationPatientDICOM": [0.999669, 0.024135, 0.00894413, -0.0240822, 0.999692, -0.00595718],
  "ImageType": [
    "ORIGINAL",
    "PRIMARY",
    "FMRI",
    "NONE",
    "ND",
    "NORM",
    "MOSAIC"
],
  "ImagingFrequency": 123.252,
  "InPlanePhaseEncodingDirectionDICOM": "COL",
  "InstitutionAddress": "Maynard_3_Hanover_NH_US_03755",
  "InstitutionName": "Dartmouth_College_-_PBS",
  "InstitutionalDepartmentName": "Department",
  "MRAcquisitionType": "2D",
  "MagneticFieldStrength": 3,
  "Manufacturer": "Siemens",
  "ManufacturersModelName": "Prisma",
  "Modality": "MR",
  "MultibandAccelerationFactor": 4,
  "PartialFourier": 1,
  "PatientPosition": "HFS",
  "PercentPhaseFOV": 100,
  "PhaseEncodingDirection": "j-",
  "PhaseEncodingSteps": 96,
  "PhaseResolution": 1,
  "PixelBandwidth": 2365,
  "ProcedureStepDescription": "Gobbini_Matteo_1037_budapest",
  "ProtocolName": "func_run-03_task-movie",
  "PulseSequenceDetails": "%SiemensSeq%_ep2d_bold",
  "ReceiveCoilActiveElements": "HEA;HEP",
  "ReceiveCoilName": "Head_32",
  "ReconMatrixPE": 96,
  "RefLinesPE": 12,
  "RepetitionTime": 1,
  "SAR": 0.0532275,
  "ScanOptions": "FS",
  "ScanningSequence": "EP",
  "SequenceName": "_epfid2d1_96",
  "SequenceVariant": "SK",
  "SeriesDescription": "func_run-03_task-movie",
  "SeriesNumber": 22,
  "ShimSetting": [4137, -7688, -7287, 516, -24, 109, 79, 79],
  "SliceThickness": 2.5,
  "SliceTiming": [0.735, 0, 0.49, 0.08, 0.57, 0.1625, 0.6525, 0.325, 0.815, 0.4075, 0.8975, 0.245, 0.735, 0, 0.49, 0.08, 0.57, 0.1625, 0.6525, 0.325, 0.815, 0.4075, 0.8975, 0.245, 0.735, 0, 0.49, 0.08, 0.57, 0.1625, 0.6525, 0.325, 0.815, 0.4075, 0.8975, 0.245, 0.735, 0, 0.49, 0.08, 0.57, 0.1625, 0.6525, 0.325, 0.815, 0.4075, 0.8975, 0.245],
  "SoftwareVersions": "syngo_MR_E11",
  "SpacingBetweenSlices": 2.5,
  "StationName": "AWP66112",
  "TaskName": "movie",
  "TotalReadoutTime": 0.0522511,
  "TxRefAmp": 246.713,
  "dcmmeta_affine": [
    [-2.499171733856201, -0.060205571353435516, 0.02271287888288498, 127.28321075439453],
    [-0.06033739820122719, 2.4992306232452393, -0.014349520206451416, -103.46067810058594],
    [0.022360321134328842, 0.014892940409481525, 2.4998555183410645, -57.07918930053711],
    [0.0, 0.0, 0.0, 1.0]
],
  "dcmmeta_reorient_transform": [
    [0.0, -1.0, 0.0, 95.0],
    [1.0, 0.0, 0.0, 0.0],
    [0.0, 0.0, 1.0, 0.0],
    [0.0, 0.0, 0.0, 1.0]
],
  "dcmmeta_shape": [96, 96, 48, 535],
  "dcmmeta_slice_dim": 2,
  "dcmmeta_version": 0.6,
  "global": {
    "const": {
      "AccessionNumber": "A001091",
      "AcquisitionMatrix": [96, 0, 0, 96],
      "AngioFlag": "N",
      "BitsAllocated": 16,
      "BitsStored": 12,
      "BodyPartExamined": "BRAIN",
      "Columns": 672,
      "EchoNumbers": 1,
      "EchoTime": 33.0,
      "EchoTrainLength": 96,
      "FlipAngle": 59.0,
      "HighBit": 11,
      "ImageOrientationPatient": [0.99966869826184, 0.02413495987316, 0.00894412809588, -0.0240822286372, 0.9996922317972, -0.0059571761944],
      "ImagePositionPatient": [-823.98593730684, -871.12180416076, -57.814966873864],
      "ImageType": [
        "ORIGINAL",
        "PRIMARY",
        "FMRI",
        "NONE",
        "ND",
        "NORM",
        "MOSAIC"
],
      "ImagedNucleus": "1H",
      "ImagingFrequency": 123.252316,
      "InPlanePhaseEncodingDirection": "COL",
      "MRAcquisitionType": "2D",
      "MagneticFieldStrength": 3.0,
      "Manufacturer": "SIEMENS",
      "ManufacturerModelName": "Prisma",
      "Modality": "MR",
      "NumberOfAverages": 1.0,
      "NumberOfPhaseEncodingSteps": 96,
      "PercentPhaseFieldOfView": 100.0,
      "PercentSampling": 100.0,
      "PerformedProcedureStepStartTime": "195906.991000",
      "PhotometricInterpretation": "MONOCHROME2",
      "PixelBandwidth": 2365.0,
      "PixelRepresentation": 0,
      "PixelSpacing": [2.5, 2.5],
      "ProtocolName": "func_run-03_task-movie",
      "RepetitionTime": 1000.0,
      "Rows": 672,
      "SAR": 0.05322747899168,
      "SamplesPerPixel": 1,
      "ScanOptions": "FS",
      "ScanningSequence": "EP",
      "SequenceName": "*epfid2d1_96",
      "SequenceVariant": "SK",
      "SeriesDescription": "func_run-03_task-movie",
      "SeriesNumber": 22,
      "SeriesTime": "203832.230000",
      "SliceLocation": -55.325663170615,
      "SliceThickness": 2.5,
      "SmallestImagePixelValue": 0,
      "SoftwareVersions": "syngo MR E11",
      "SpacingBetweenSlices": 2.4999999704986,
      "SpecificCharacterSet": "ISO_IR 100",
      "StudyID": "1",
      "StudyTime": "195906.934000",
      "TransmitCoilName": "Body",
      "VariableFlipAngleFlag": "N",
      "WindowCenterWidthExplanation": "Algo1",
      "dBdt": 0.0},
    "slices": {}
  },
  "time": {
    "samples": {
      "AcquisitionNumber": [1, 2, 3, 4, 5, 6, 7, 8, 9, 10, 11, 12, 13, 14, 15, 16, 17, 18, 19, 20, 21, 22, 23, 24, 25, 26, 27, 28, 29, 30, 31, 32, 33, 34, 35, 36, 37, 38, 39, 40, 41, 42, 43, 44, 45, 46, 47, 48, 49, 50, 51, 52, 53, 54, 55, 56, 57, 58, 59, 60, 61, 62, 63, 64, 65, 66, 67, 68, 69, 70, 71, 72, 73, 74, 75, 76, 77, 78, 79, 80, 81, 82, 83, 84, 85, 86, 87, 88, 89, 90, 91, 92, 93, 94, 95, 96, 97, 98, 99, 100, 101, 102, 103, 104, 105, 106, 107, 108, 109, 110, 111, 112, 113, 114, 115, 116, 117, 118, 119, 120, 121, 122, 123, 124, 125, 126, 127, 128, 129, 130, 131, 132, 133, 134, 135, 136, 137, 138, 139, 140, 141, 142, 143, 144, 145, 146, 147, 148, 149, 150, 151, 152, 153, 154, 155, 156, 157, 158, 159, 160, 161, 162, 163, 164, 165, 166, 167, 168, 169, 170, 171, 172, 173, 174, 175, 176, 177, 178, 179, 180, 181, 182, 183, 184, 185, 186, 187, 188, 189, 190, 191, 192, 193, 194, 195, 196, 197, 198, 199, 200, 201, 202, 203, 204, 205, 206, 207, 208, 209, 210, 211, 212, 213, 214, 215, 216, 217, 218, 219, 220, 221, 222, 223, 224, 225, 226, 227, 228, 229, 230, 231, 232, 233, 234, 235, 236, 237, 238, 239, 240, 241, 242, 243, 244, 245, 246, 247, 248, 249, 250, 251, 252, 253, 254, 255, 256, 257, 258, 259, 260, 261, 262, 263, 264, 265, 266, 267, 268, 269, 270, 271, 272, 273, 274, 275, 276, 277, 278, 279, 280, 281, 282, 283, 284, 285, 286, 287, 288, 289, 290, 291, 292, 293, 294, 295, 296, 297, 298, 299, 300, 301, 302, 303, 304, 305, 306, 307, 308, 309, 310, 311, 312, 313, 314, 315, 316, 317, 318, 319, 320, 321, 322, 323, 324, 325, 326, 327, 328, 329, 330, 331, 332, 333, 334, 335, 336, 337, 338, 339, 340, 341, 342, 343, 344, 345, 346, 347, 348, 349, 350, 351, 352, 353, 354, 355, 356, 357, 358, 359, 360, 361, 362, 363, 364, 365, 366, 367, 368, 369, 370, 371, 372, 373, 374, 375, 376, 377, 378, 379, 380, 381, 382, 383, 384, 385, 386, 387, 388, 389, 390, 391, 392, 393, 394, 395, 396, 397, 398, 399, 400, 401, 402, 403, 404, 405, 406, 407, 408, 409, 410, 411, 412, 413, 414, 415, 416, 417, 418, 419, 420, 421, 422, 423, 424, 425, 426, 427, 428, 429, 430, 431, 432, 433, 434, 435, 436, 437, 438, 439, 440, 441, 442, 443, 444, 445, 446, 447, 448, 449, 450, 451, 452, 453, 454, 455, 456, 457, 458, 459, 460, 461, 462, 463, 464, 465, 466, 467, 468, 469, 470, 471, 472, 473, 474, 475, 476, 477, 478, 479, 480, 481, 482, 483, 484, 485, 486, 487, 488, 489, 490, 491, 492, 493, 494, 495, 496, 497, 498, 499, 500, 501, 502, 503, 504, 505, 506, 507, 508, 509, 510, 511, 512, 513, 514, 515, 516, 517, 518, 519, 520, 521, 522, 523, 524, 525, 526, 527, 528, 529, 530, 531, 532, 533, 534, 535],
      "AcquisitionTime": ["203830.800000", "203831.800000", "203832.800000", "203833.800000", "203834.800000", "203835.800000", "203836.800000", "203837.800000", "203838.800000", "203839.800000", "203840.800000", "203841.800000", "203842.800000", "203843.800000", "203844.800000", "203845.800000", "203846.800000", "203847.800000", "203848.800000", "203849.800000", "203850.800000", "203851.800000", "203852.800000", "203853.800000", "203854.800000", "203855.800000", "203856.800000", "203857.800000", "203858.800000", "203859.800000", "203900.800000", "203901.800000", "203902.800000", "203903.800000", "203904.800000", "203905.800000", "203906.800000", "203907.800000", "203908.800000", "203909.800000", "203910.800000", "203911.800000", "203912.800000", "203913.800000", "203914.800000", "203915.800000", "203916.800000", "203917.800000", "203918.800000", "203919.800000", "203920.800000", "203921.800000", "203922.800000", "203923.800000", "203924.800000", "203925.800000", "203926.800000", "203927.800000", "203928.800000", "203929.800000", "203930.800000", "203931.800000", "203932.800000", "203933.800000", "203934.800000", "203935.800000", "203936.800000", "203937.800000", "203938.800000", "203939.800000", "203940.800000", "203941.800000", "203942.800000", "203943.800000", "203944.800000", "203945.800000", "203946.800000", "203947.800000", "203948.800000", "203949.800000", "203950.800000", "203951.800000", "203952.800000", "203953.800000", "203954.800000", "203955.800000", "203956.800000", "203957.800000", "203958.800000", "203959.800000", "204000.800000", "204001.800000", "204002.800000", "204003.800000", "204004.800000", "204005.800000", "204006.800000", "204007.800000", "204008.800000", "204009.800000", "204010.800000", "204011.800000", "204012.800000", "204013.800000", "204014.800000", "204015.800000", "204016.800000", "204017.800000", "204018.800000", "204019.800000", "204020.800000", "204021.800000", "204022.800000", "204023.800000", "204024.800000", "204025.800000", "204026.800000", "204027.800000", "204028.800000", "204029.800000", "204030.800000", "204031.800000", "204032.800000", "204033.800000", "204034.800000", "204035.800000", "204036.800000", "204037.800000", "204038.800000", "204039.800000", "204040.800000", "204041.800000", "204042.800000", "204043.800000", "204044.800000", "204045.800000", "204046.800000", "204047.800000", "204048.800000", "204049.800000", "204050.800000", "204051.800000", "204052.800000", "204053.800000", "204054.800000", "204055.800000", "204056.800000", "204057.800000", "204058.800000", "204059.800000", "204100.800000", "204101.800000", "204102.800000", "204103.800000", "204104.800000", "204105.800000", "204106.800000", "204107.800000", "204108.800000", "204109.800000", "204110.800000", "204111.800000", "204112.800000", "204113.800000", "204114.800000", "204115.800000", "204116.800000", "204117.800000", "204118.800000", "204119.800000", "204120.800000", "204121.800000", "204122.800000", "204123.800000", "204124.800000", "204125.800000", "204126.800000", "204127.800000", "204128.800000", "204129.800000", "204130.800000", "204131.800000", "204132.800000", "204133.800000", "204134.800000", "204135.800000", "204136.800000", "204137.800000", "204138.800000", "204139.800000", "204140.800000", "204141.800000", "204142.800000", "204143.800000", "204144.800000", "204145.800000", "204146.800000", "204147.800000", "204148.800000", "204149.800000", "204150.800000", "204151.800000", "204152.800000", "204153.800000", "204154.800000", "204155.800000", "204156.800000", "204157.800000", "204158.800000", "204159.800000", "204200.800000", "204201.800000", "204202.800000", "204203.800000", "204204.800000", "204205.800000", "204206.800000", "204207.800000", "204208.800000", "204209.800000", "204210.800000", "204211.800000", "204212.800000", "204213.800000", "204214.800000", "204215.800000", "204216.800000", "204217.800000", "204218.800000", "204219.800000", "204220.800000", "204221.800000", "204222.800000", "204223.800000", "204224.800000", "204225.800000", "204226.800000", "204227.800000", "204228.800000", "204229.800000", "204230.800000", "204231.800000", "204232.800000", "204233.800000", "204234.800000", "204235.800000", "204236.800000", "204237.800000", "204238.800000", "204239.800000", "204240.800000", "204241.800000", "204242.800000", "204243.800000", "204244.800000", "204245.800000", "204246.800000", "204247.800000", "204248.800000", "204249.800000", "204250.800000", "204251.800000", "204252.800000", "204253.800000", "204254.800000", "204255.800000", "204256.800000", "204257.800000", "204258.800000", "204259.800000", "204300.800000", "204301.800000", "204302.800000", "204303.800000", "204304.800000", "204305.800000", "204306.800000", "204307.800000", "204308.800000", "204309.800000", "204310.800000", "204311.800000", "204312.800000", "204313.800000", "204314.800000", "204315.800000", "204316.800000", "204317.800000", "204318.800000", "204319.800000", "204320.800000", "204321.800000", "204322.800000", "204323.800000", "204324.800000", "204325.800000", "204326.800000", "204327.800000", "204328.800000", "204329.800000", "204330.800000", "204331.800000", "204332.800000", "204333.800000", "204334.800000", "204335.800000", "204336.800000", "204337.800000", "204338.800000", "204339.800000", "204340.800000", "204341.800000", "204342.800000", "204343.800000", "204344.800000", "204345.800000", "204346.800000", "204347.800000", "204348.800000", "204349.800000", "204350.800000", "204351.800000", "204352.800000", "204353.800000", "204354.800000", "204355.800000", "204356.800000", "204357.800000", "204358.800000", "204359.800000", "204400.800000", "204401.800000", "204402.800000", "204403.800000", "204404.800000", "204405.800000", "204406.800000", "204407.800000", "204408.800000", "204409.800000", "204410.800000", "204411.800000", "204412.800000", "204413.800000", "204414.800000", "204415.800000", "204416.800000", "204417.800000", "204418.800000", "204419.800000", "204420.800000", "204421.800000", "204422.800000", "204423.800000", "204424.800000", "204425.800000", "204426.800000", "204427.800000", "204428.800000", "204429.800000", "204430.800000", "204431.800000", "204432.800000", "204433.800000", "204434.800000", "204435.800000", "204436.800000", "204437.800000", "204438.800000", "204439.800000", "204440.800000", "204441.800000", "204442.800000", "204443.800000", "204444.800000", "204445.800000", "204446.800000", "204447.800000", "204448.800000", "204449.800000", "204450.800000", "204451.800000", "204452.800000", "204453.800000", "204454.800000", "204455.800000", "204456.800000", "204457.800000", "204458.800000", "204459.800000", "204500.800000", "204501.800000", "204502.800000", "204503.800000", "204504.800000", "204505.800000", "204506.800000", "204507.800000", "204508.800000", "204509.800000", "204510.800000", "204511.800000", "204512.800000", "204513.800000", "204514.800000", "204515.800000", "204516.800000", "204517.800000", "204518.800000", "204519.800000", "204520.800000", "204521.800000", "204522.800000", "204523.800000", "204524.800000", "204525.800000", "204526.800000", "204527.800000", "204528.800000", "204529.800000", "204530.800000", "204531.800000", "204532.800000", "204533.800000", "204534.800000", "204535.800000", "204536.800000", "204537.800000", "204538.800000", "204539.800000", "204540.800000", "204541.800000", "204542.800000", "204543.800000", "204544.800000", "204545.800000", "204546.800000", "204547.800000", "204548.800000", "204549.800000", "204550.800000", "204551.800000", "204552.800000", "204553.800000", "204554.800000", "204555.800000", "204556.800000", "204557.800000", "204558.800000", "204559.800000", "204600.800000", "204601.800000", "204602.800000", "204603.800000", "204604.800000", "204605.800000", "204606.800000", "204607.800000", "204608.800000", "204609.800000", "204610.800000", "204611.800000", "204612.800000", "204613.800000", "204614.800000", "204615.800000", "204616.800000", "204617.800000", "204618.800000", "204619.800000", "204620.800000", "204621.800000", "204622.800000", "204623.800000", "204624.800000", "204625.800000", "204626.800000", "204627.800000", "204628.800000", "204629.800000", "204630.800000", "204631.800000", "204632.800000", "204633.800000", "204634.800000", "204635.800000", "204636.800000", "204637.800000", "204638.800000", "204639.800000", "204640.800000", "204641.800000", "204642.800000", "204643.800000", "204644.800000", "204645.800000", "204646.800000", "204647.800000", "204648.800000", "204649.800000", "204650.800000", "204651.800000", "204652.800000", "204653.800000", "204654.800000", "204655.800000", "204656.800000", "204657.800000", "204658.800000", "204659.800000", "204700.800000", "204701.800000", "204702.800000", "204703.800000", "204704.800000", "204705.800000", "204706.800000", "204707.800000", "204708.800000", "204709.800000", "204710.800000", "204711.800000", "204712.800000", "204713.800000", "204714.800000", "204715.800000", "204716.800000", "204717.800000", "204718.800000", "204719.800000", "204720.800000", "204721.800000", "204722.800000", "204723.800000", "204724.800000"],
      "ContentTime": ["203832.235000", "203833.079000", "203834.077000", "203835.086000", "203836.078000", "203837.091000", "203838.081000", "203839.160000", "203840.072000", "203841.094000", "203842.077000", "203843.094000", "203844.092000", "203845.100000", "203846.081000", "203847.091000", "203848.083000", "203849.119000", "203850.117000", "203851.069000", "203852.084000", "203853.080000", "203854.089000", "203855.068000", "203856.075000", "203857.062000", "203858.071000", "203859.066000", "203900.113000", "203901.090000", "203902.089000", "203903.096000", "203904.067000", "203905.087000", "203906.075000", "203907.082000", "203908.082000", "203909.068000", "203910.073000", "203911.064000", "203912.097000", "203913.079000", "203914.064000", "203915.066000", "203916.069000", "203917.061000", "203918.073000", "203919.060000", "203920.062000", "203921.064000", "203922.100000", "203923.076000", "203924.054000", "203925.077000", "203926.062000", "203927.078000", "203928.081000", "203929.058000", "203930.102000", "203931.095000", "203932.071000", "203933.039000", "203934.056000", "203935.069000", "203936.084000", "203937.058000", "203938.044000", "203939.082000", "203940.087000", "203941.101000", "203942.088000", "203943.093000", "203944.051000", "203945.091000", "203946.074000", "203947.083000", "203948.072000", "203949.039000", "203950.080000", "203951.078000", "203952.069000", "203953.065000", "203954.119000", "203955.074000", "203956.100000", "203957.063000", "203958.061000", "203959.073000", "204000.074000", "204001.070000", "204002.072000", "204003.061000", "204004.081000", "204005.061000", "204006.059000", "204007.072000", "204008.121000", "204009.082000", "204010.109000", "204011.103000", "204012.088000", "204013.073000", "204014.093000", "204015.053000", "204016.067000", "204017.102000", "204018.093000", "204019.090000", "204020.114000", "204021.074000", "204022.075000", "204023.084000", "204024.109000", "204025.100000", "204026.091000", "204027.093000", "204028.097000", "204029.054000", "204030.072000", "204031.086000", "204032.086000", "204033.086000", "204034.098000", "204035.086000", "204036.128000", "204037.065000", "204038.084000", "204039.067000", "204040.097000", "204041.090000", "204042.076000", "204043.110000", "204044.062000", "204045.065000", "204046.057000", "204047.107000", "204048.051000", "204049.088000", "204050.060000", "204051.074000", "204052.073000", "204053.067000", "204054.091000", "204055.070000", "204056.088000", "204057.081000", "204058.079000", "204059.088000", "204100.076000", "204101.087000", "204102.095000", "204103.108000", "204104.089000", "204105.105000", "204106.090000", "204107.075000", "204108.119000", "204109.081000", "204110.051000", "204111.107000", "204112.117000", "204113.112000", "204114.139000", "204115.074000", "204116.069000", "204117.078000", "204118.076000", "204119.077000", "204120.075000", "204121.073000", "204122.068000", "204123.091000", "204124.038000", "204125.089000", "204126.090000", "204127.063000", "204128.116000", "204129.114000", "204130.120000", "204131.075000", "204132.127000", "204133.082000", "204134.082000", "204135.116000", "204136.085000", "204137.133000", "204138.042000", "204139.094000", "204140.094000", "204141.067000", "204142.146000", "204143.090000", "204144.083000", "204145.071000", "204146.051000", "204147.081000", "204148.092000", "204149.078000", "204150.075000", "204151.082000", "204152.097000", "204153.092000", "204154.074000", "204155.093000", "204156.086000", "204157.053000", "204158.074000", "204159.095000", "204200.082000", "204201.072000", "204202.084000", "204203.146000", "204204.089000", "204205.087000", "204206.068000", "204207.076000", "204208.059000", "204209.062000", "204210.088000", "204211.087000", "204212.082000", "204213.081000", "204214.092000", "204215.062000", "204216.089000", "204217.092000", "204218.074000", "204219.059000", "204220.126000", "204221.088000", "204222.065000", "204223.080000", "204224.099000", "204225.076000", "204226.078000", "204227.092000", "204228.087000", "204229.073000", "204230.104000", "204231.086000", "204232.076000", "204233.087000", "204234.058000", "204235.086000", "204236.064000", "204237.139000", "204238.096000", "204239.104000", "204240.090000", "204241.081000", "204242.077000", "204243.095000", "204244.070000", "204245.071000", "204246.086000", "204247.110000", "204248.065000", "204249.093000", "204250.102000", "204251.085000", "204252.085000", "204253.085000", "204254.089000", "204255.045000", "204256.103000", "204257.119000", "204258.092000", "204259.079000", "204300.113000", "204301.080000", "204302.072000", "204303.067000", "204304.078000", "204305.122000", "204306.090000", "204307.124000", "204308.068000", "204309.074000", "204310.114000", "204311.087000", "204312.109000", "204313.091000", "204314.071000", "204315.071000", "204316.120000", "204317.088000", "204318.155000", "204319.084000", "204320.047000", "204321.122000", "204322.122000", "204323.101000", "204324.101000", "204325.064000", "204326.090000", "204327.078000", "204328.095000", "204329.096000", "204330.095000", "204331.086000", "204332.103000", "204333.093000", "204334.073000", "204335.061000", "204336.074000", "204337.082000", "204338.078000", "204339.069000", "204340.082000", "204341.108000", "204342.105000", "204343.074000", "204344.091000", "204345.087000", "204346.081000", "204347.074000", "204348.073000", "204349.078000", "204350.069000", "204351.083000", "204352.081000", "204353.103000", "204354.064000", "204355.113000", "204356.076000", "204357.121000", "204358.071000", "204359.053000", "204400.084000", "204401.071000", "204402.067000", "204403.088000", "204404.066000", "204405.094000", "204406.057000", "204407.107000", "204408.076000", "204409.096000", "204410.082000", "204411.090000", "204412.093000", "204413.096000", "204414.102000", "204415.090000", "204416.084000", "204417.074000", "204418.106000", "204419.100000", "204420.103000", "204421.087000", "204422.072000", "204423.059000", "204424.074000", "204425.089000", "204426.101000", "204427.127000", "204428.065000", "204429.112000", "204430.102000", "204431.082000", "204432.099000", "204433.103000", "204434.085000", "204435.081000", "204436.110000", "204437.106000", "204438.073000", "204439.090000", "204440.061000", "204441.074000", "204442.068000", "204443.056000", "204444.067000", "204445.072000", "204446.060000", "204447.105000", "204448.068000", "204449.073000", "204450.074000", "204451.079000", "204452.074000", "204453.063000", "204454.068000", "204455.072000", "204456.069000", "204457.067000", "204458.084000", "204459.090000", "204500.099000", "204501.093000", "204502.071000", "204503.082000", "204504.077000", "204505.071000", "204506.073000", "204507.065000", "204508.050000", "204509.095000", "204510.066000", "204511.123000", "204512.072000", "204513.082000", "204514.069000", "204515.081000", "204516.078000", "204517.048000", "204518.069000", "204519.062000", "204520.078000", "204521.060000", "204522.080000", "204523.084000", "204524.084000", "204525.069000", "204526.061000", "204527.092000", "204528.055000", "204529.129000", "204530.088000", "204531.102000", "204532.089000", "204533.111000", "204534.105000", "204535.077000", "204536.101000", "204537.090000", "204538.087000", "204539.093000", "204540.075000", "204541.075000", "204542.065000", "204543.079000", "204544.079000", "204545.071000", "204546.088000", "204547.092000", "204548.090000", "204549.117000", "204550.102000", "204551.070000", "204552.047000", "204553.078000", "204554.075000", "204555.104000", "204556.160000", "204557.064000", "204558.081000", "204559.090000", "204600.083000", "204601.089000", "204602.079000", "204603.065000", "204604.074000", "204605.067000", "204606.074000", "204607.057000", "204608.049000", "204609.054000", "204610.062000", "204611.072000", "204612.046000", "204613.082000", "204614.099000", "204615.108000", "204616.048000", "204617.107000", "204618.088000", "204619.081000", "204620.073000", "204621.072000", "204622.069000", "204623.045000", "204624.067000", "204625.074000", "204626.050000", "204627.076000", "204628.059000", "204629.068000", "204630.072000", "204631.078000", "204632.055000", "204633.082000", "204634.062000", "204635.059000", "204636.088000", "204637.064000", "204638.083000", "204639.098000", "204640.079000", "204641.074000", "204642.068000", "204643.099000", "204644.060000", "204645.066000", "204646.061000", "204647.067000", "204648.079000", "204649.114000", "204650.139000", "204651.116000", "204652.118000", "204653.120000", "204654.083000", "204655.108000", "204656.103000", "204657.112000", "204658.125000", "204659.129000", "204700.128000", "204701.237000", "204702.154000", "204703.122000", "204704.120000", "204705.130000", "204706.131000", "204707.116000", "204708.122000", "204709.123000", "204710.120000", "204711.112000", "204712.124000", "204713.115000", "204714.113000", "204715.116000", "204716.141000", "204717.103000", "204718.119000", "204719.137000", "204720.134000", "204721.131000", "204722.135000", "204723.145000", "204724.130000", "204725.111000", "204726.112000"],
