{
  "AcquisitionMatrixPE": 96,
  "AcquisitionNumber": 1,
  "AcquisitionTime": "18:09:37.562500",
  "BandwidthPerPixelPhaseEncode": 18.939,
  "BaseResolution": 96,
  "BodyPartExamined": "BRAIN",
  "ConsistencyInfo": "N4_VE11C_LATEST_20160120",
  "ConversionSoftware": "dcm2niix",
  "ConversionSoftwareVersion": "v1.0.20190902",
  "DerivedVendorReportedEchoSpacing": 0.000550011,
  "DeviceSerialNumber": "66112",
  "DwellTime": 2.2e-06,
  "EchoTime": 0.033,
  "EchoTrainLength": 96,
  "EffectiveEchoSpacing": 0.000550011,
  "FlipAngle": 59,
  "ImageOrientationPatientDICOM": [0.999875, 0.0156172, -0.00241915, -0.0157073, 0.998938, -0.0433059],
  "ImageType": [
    "ORIGINAL",
    "PRIMARY",
    "FMRI",
    "NONE",
    "ND",
    "NORM",
    "MOSAIC"
],
  "ImagingFrequency": 123.252,
  "InPlanePhaseEncodingDirectionDICOM": "COL",
  "InstitutionAddress": "Maynard_3_Hanover_NH_US_03755",
  "InstitutionName": "Dartmouth_College_-_PBS",
  "InstitutionalDepartmentName": "Department",
  "MRAcquisitionType": "2D",
  "MagneticFieldStrength": 3,
  "Manufacturer": "Siemens",
  "ManufacturersModelName": "Prisma",
  "Modality": "MR",
  "MultibandAccelerationFactor": 4,
  "PartialFourier": 1,
  "PatientPosition": "HFS",
  "PercentPhaseFOV": 100,
  "PhaseEncodingDirection": "j-",
  "PhaseEncodingSteps": 96,
  "PhaseResolution": 1,
  "PixelBandwidth": 2365,
  "ProcedureStepDescription": "Gobbini_Matteo_1037_budapest",
  "ProtocolName": "func_run-05_task-movie",
  "PulseSequenceDetails": "%SiemensSeq%_ep2d_bold",
  "ReceiveCoilActiveElements": "HEA;HEP",
  "ReceiveCoilName": "Head_32",
  "ReconMatrixPE": 96,
  "RefLinesPE": 12,
  "RepetitionTime": 1,
  "SAR": 0.048196,
  "ScanOptions": "FS",
  "ScanningSequence": "EP",
  "SequenceName": "_epfid2d1_96",
  "SequenceVariant": "SK",
  "SeriesDescription": "func_run-05_task-movie",
  "SeriesNumber": 36,
  "ShimSetting": [4133, -7706, -7320, 442, -45, 29, 2, 92],
  "SliceThickness": 2.5,
  "SliceTiming": [0.735, 0, 0.49, 0.0825, 0.57, 0.1625, 0.6525, 0.3275, 0.815, 0.4075, 0.8975, 0.245, 0.735, 0, 0.49, 0.0825, 0.57, 0.1625, 0.6525, 0.3275, 0.815, 0.4075, 0.8975, 0.245, 0.735, 0, 0.49, 0.0825, 0.57, 0.1625, 0.6525, 0.3275, 0.815, 0.4075, 0.8975, 0.245, 0.735, 0, 0.49, 0.0825, 0.57, 0.1625, 0.6525, 0.3275, 0.815, 0.4075, 0.8975, 0.245],
  "SoftwareVersions": "syngo_MR_E11",
  "SpacingBetweenSlices": 2.5,
  "StationName": "AWP66112",
  "TaskName": "movie",
  "TotalReadoutTime": 0.0522511,
  "TxRefAmp": 257.946,
  "dcmmeta_affine": [
    [-2.499687910079956, -0.03926827758550644, -0.004350660834461451, 124.35991668701172],
    [-0.039042916148900986, 2.4973459243774414, -0.10834610462188721, -105.15505981445312],
    [-0.0060478681698441505, 0.10826462507247925, 2.497647285461426, -97.12120056152344],
    [0.0, 0.0, 0.0, 1.0]
],
  "dcmmeta_reorient_transform": [
    [0.0, -1.0, 0.0, 95.0],
    [1.0, 0.0, 0.0, 0.0],
    [0.0, 0.0, 1.0, 0.0],
    [0.0, 0.0, 0.0, 1.0]
],
  "dcmmeta_shape": [96, 96, 48, 803],
  "dcmmeta_slice_dim": 2,
  "dcmmeta_version": 0.6,
  "global": {
    "const": {
      "AccessionNumber": "A001441",
      "AcquisitionMatrix": [96, 0, 0, 96],
      "AngioFlag": "N",
      "BitsAllocated": 16,
      "BitsStored": 12,
      "BodyPartExamined": "BRAIN",
      "Columns": 672,
      "EchoNumbers": 1,
      "EchoTime": 33.0,
      "EchoTrainLength": 96,
      "FlipAngle": 59.0,
      "HighBit": 11,
      "ImageOrientationPatient": [0.99987511813121, 0.01561716582648, -0.0024191472999, -0.015707311095, 0.99893837831083, -0.0433058508275],
      "ImagePositionPatient": [-829.23025454702, -862.57279316848, -53.914060655089],
      "ImageType": [
        "ORIGINAL",
        "PRIMARY",
        "FMRI",
        "NONE",
        "ND",
        "NORM",
        "MOSAIC"
],
      "ImagedNucleus": "1H",
      "ImagingFrequency": 123.252325,
      "InPlanePhaseEncodingDirection": "COL",
      "MRAcquisitionType": "2D",
      "MagneticFieldStrength": 3.0,
      "Manufacturer": "SIEMENS",
      "ManufacturerModelName": "Prisma",
      "Modality": "MR",
      "NumberOfAverages": 1.0,
      "NumberOfPhaseEncodingSteps": 96,
      "PercentPhaseFieldOfView": 100.0,
      "PercentSampling": 100.0,
      "PerformedProcedureStepStartTime": "170538.148000",
      "PhotometricInterpretation": "MONOCHROME2",
      "PixelBandwidth": 2365.0,
      "PixelRepresentation": 0,
      "PixelSpacing": [2.5, 2.5],
      "ProtocolName": "func_run-05_task-movie",
      "RepetitionTime": 1000.0,
      "Rows": 672,
      "SAR": 0.04819601887113,
      "SamplesPerPixel": 1,
      "ScanOptions": "FS",
      "ScanningSequence": "EP",
      "SequenceName": "*epfid2d1_96",
      "SequenceVariant": "SK",
      "SeriesDescription": "func_run-05_task-movie",
      "SeriesNumber": 36,
      "SeriesTime": "180938.956000",
      "SliceLocation": -92.688963923949,
      "SliceThickness": 2.5,
      "SmallestImagePixelValue": 0,
      "SoftwareVersions": "syngo MR E11",
      "SpacingBetweenSlices": 2.4999999737864,
      "SpecificCharacterSet": "ISO_IR 100",
      "StudyID": "1",
      "StudyTime": "170538.063000",
      "TransmitCoilName": "Body",
      "VariableFlipAngleFlag": "N",
      "WindowCenterWidthExplanation": "Algo1",
      "dBdt": 0.0},
    "slices": {}
  },
  "time": {
    "samples": {
      "AcquisitionNumber": [1, 2, 3, 4, 5, 6, 7, 8, 9, 10, 11, 12, 13, 14, 15, 16, 17, 18, 19, 20, 21, 22, 23, 24, 25, 26, 27, 28, 29, 30, 31, 32, 33, 34, 35, 36, 37, 38, 39, 40, 41, 42, 43, 44, 45, 46, 47, 48, 49, 50, 51, 52, 53, 54, 55, 56, 57, 58, 59, 60, 61, 62, 63, 64, 65, 66, 67, 68, 69, 70, 71, 72, 73, 74, 75, 76, 77, 78, 79, 80, 81, 82, 83, 84, 85, 86, 87, 88, 89, 90, 91, 92, 93, 94, 95, 96, 97, 98, 99, 100, 101, 102, 103, 104, 105, 106, 107, 108, 109, 110, 111, 112, 113, 114, 115, 116, 117, 118, 119, 120, 121, 122, 123, 124, 125, 126, 127, 128, 129, 130, 131, 132, 133, 134, 135, 136, 137, 138, 139, 140, 141, 142, 143, 144, 145, 146, 147, 148, 149, 150, 151, 152, 153, 154, 155, 156, 157, 158, 159, 160, 161, 162, 163, 164, 165, 166, 167, 168, 169, 170, 171, 172, 173, 174, 175, 176, 177, 178, 179, 180, 181, 182, 183, 184, 185, 186, 187, 188, 189, 190, 191, 192, 193, 194, 195, 196, 197, 198, 199, 200, 201, 202, 203, 204, 205, 206, 207, 208, 209, 210, 211, 212, 213, 214, 215, 216, 217, 218, 219, 220, 221, 222, 223, 224, 225, 226, 227, 228, 229, 230, 231, 232, 233, 234, 235, 236, 237, 238, 239, 240, 241, 242, 243, 244, 245, 246, 247, 248, 249, 250, 251, 252, 253, 254, 255, 256, 257, 258, 259, 260, 261, 262, 263, 264, 265, 266, 267, 268, 269, 270, 271, 272, 273, 274, 275, 276, 277, 278, 279, 280, 281, 282, 283, 284, 285, 286, 287, 288, 289, 290, 291, 292, 293, 294, 295, 296, 297, 298, 299, 300, 301, 302, 303, 304, 305, 306, 307, 308, 309, 310, 311, 312, 313, 314, 315, 316, 317, 318, 319, 320, 321, 322, 323, 324, 325, 326, 327, 328, 329, 330, 331, 332, 333, 334, 335, 336, 337, 338, 339, 340, 341, 342, 343, 344, 345, 346, 347, 348, 349, 350, 351, 352, 353, 354, 355, 356, 357, 358, 359, 360, 361, 362, 363, 364, 365, 366, 367, 368, 369, 370, 371, 372, 373, 374, 375, 376, 377, 378, 379, 380, 381, 382, 383, 384, 385, 386, 387, 388, 389, 390, 391, 392, 393, 394, 395, 396, 397, 398, 399, 400, 401, 402, 403, 404, 405, 406, 407, 408, 409, 410, 411, 412, 413, 414, 415, 416, 417, 418, 419, 420, 421, 422, 423, 424, 425, 426, 427, 428, 429, 430, 431, 432, 433, 434, 435, 436, 437, 438, 439, 440, 441, 442, 443, 444, 445, 446, 447, 448, 449, 450, 451, 452, 453, 454, 455, 456, 457, 458, 459, 460, 461, 462, 463, 464, 465, 466, 467, 468, 469, 470, 471, 472, 473, 474, 475, 476, 477, 478, 479, 480, 481, 482, 483, 484, 485, 486, 487, 488, 489, 490, 491, 492, 493, 494, 495, 496, 497, 498, 499, 500, 501, 502, 503, 504, 505, 506, 507, 508, 509, 510, 511, 512, 513, 514, 515, 516, 517, 518, 519, 520, 521, 522, 523, 524, 525, 526, 527, 528, 529, 530, 531, 532, 533, 534, 535, 536, 537, 538, 539, 540, 541, 542, 543, 544, 545, 546, 547, 548, 549, 550, 551, 552, 553, 554, 555, 556, 557, 558, 559, 560, 561, 562, 563, 564, 565, 566, 567, 568, 569, 570, 571, 572, 573, 574, 575, 576, 577, 578, 579, 580, 581, 582, 583, 584, 585, 586, 587, 588, 589, 590, 591, 592, 593, 594, 595, 596, 597, 598, 599, 600, 601, 602, 603, 604, 605, 606, 607, 608, 609, 610, 611, 612, 613, 614, 615, 616, 617, 618, 619, 620, 621, 622, 623, 624, 625, 626, 627, 628, 629, 630, 631, 632, 633, 634, 635, 636, 637, 638, 639, 640, 641, 642, 643, 644, 645, 646, 647, 648, 649, 650, 651, 652, 653, 654, 655, 656, 657, 658, 659, 660, 661, 662, 663, 664, 665, 666, 667, 668, 669, 670, 671, 672, 673, 674, 675, 676, 677, 678, 679, 680, 681, 682, 683, 684, 685, 686, 687, 688, 689, 690, 691, 692, 693, 694, 695, 696, 697, 698, 699, 700, 701, 702, 703, 704, 705, 706, 707, 708, 709, 710, 711, 712, 713, 714, 715, 716, 717, 718, 719, 720, 721, 722, 723, 724, 725, 726, 727, 728, 729, 730, 731, 732, 733, 734, 735, 736, 737, 738, 739, 740, 741, 742, 743, 744, 745, 746, 747, 748, 749, 750, 751, 752, 753, 754, 755, 756, 757, 758, 759, 760, 761, 762, 763, 764, 765, 766, 767, 768, 769, 770, 771, 772, 773, 774, 775, 776, 777, 778, 779, 780, 781, 782, 783, 784, 785, 786, 787, 788, 789, 790, 791, 792, 793, 794, 795, 796, 797, 798, 799, 800, 801, 802, 803],
      "AcquisitionTime": ["180937.562500", "180938.562500", "180939.562500", "180940.562500", "180941.562500", "180942.562500", "180943.562500", "180944.562500", "180945.562500", "180946.562500", "180947.562500", "180948.562500", "180949.562500", "180950.562500", "180951.562500", "180952.562500", "180953.562500", "180954.562500", "180955.562500", "180956.562500", "180957.562500", "180958.562500", "180959.562500", "181000.562500", "181001.562500", "181002.562500", "181003.562500", "181004.562500", "181005.562500", "181006.562500", "181007.562500", "181008.562500", "181009.562500", "181010.562500", "181011.562500", "181012.562500", "181013.562500", "181014.562500", "181015.562500", "181016.562500", "181017.562500", "181018.562500", "181019.562500", "181020.562500", "181021.562500", "181022.562500", "181023.562500", "181024.562500", "181025.562500", "181026.562500", "181027.562500", "181028.562500", "181029.562500", "181030.562500", "181031.562500", "181032.562500", "181033.562500", "181034.562500", "181035.562500", "181036.562500", "181037.562500", "181038.562500", "181039.562500", "181040.562500", "181041.562500", "181042.562500", "181043.562500", "181044.562500", "181045.562500", "181046.562500", "181047.562500", "181048.562500", "181049.562500", "181050.562500", "181051.562500", "181052.562500", "181053.562500", "181054.562500", "181055.562500", "181056.562500", "181057.562500", "181058.562500", "181059.562500", "181100.562500", "181101.562500", "181102.562500", "181103.562500", "181104.562500", "181105.562500", "181106.562500", "181107.562500", "181108.562500", "181109.562500", "181110.562500", "181111.562500", "181112.562500", "181113.562500", "181114.562500", "181115.562500", "181116.562500", "181117.562500", "181118.562500", "181119.562500", "181120.562500", "181121.562500", "181122.562500", "181123.562500", "181124.562500", "181125.562500", "181126.562500", "181127.562500", "181128.562500", "181129.562500", "181130.562500", "181131.562500", "181132.562500", "181133.562500", "181134.562500", "181135.562500", "181136.562500", "181137.562500", "181138.562500", "181139.562500", "181140.562500", "181141.562500", "181142.562500", "181143.562500", "181144.562500", "181145.562500", "181146.562500", "181147.562500", "181148.562500", "181149.562500", "181150.562500", "181151.562500", "181152.562500", "181153.562500", "181154.562500", "181155.562500", "181156.562500", "181157.562500", "181158.562500", "181159.562500", "181200.562500", "181201.562500", "181202.562500", "181203.562500", "181204.562500", "181205.562500", "181206.562500", "181207.562500", "181208.562500", "181209.562500", "181210.562500", "181211.562500", "181212.562500", "181213.562500", "181214.562500", "181215.562500", "181216.562500", "181217.562500", "181218.562500", "181219.562500", "181220.562500", "181221.562500", "181222.562500", "181223.562500", "181224.562500", "181225.562500", "181226.562500", "181227.562500", "181228.562500", "181229.562500", "181230.562500", "181231.562500", "181232.562500", "181233.562500", "181234.562500", "181235.562500", "181236.562500", "181237.562500", "181238.562500", "181239.562500", "181240.562500", "181241.562500", "181242.562500", "181243.562500", "181244.562500", "181245.562500", "181246.562500", "181247.562500", "181248.562500", "181249.562500", "181250.562500", "181251.562500", "181252.562500", "181253.562500", "181254.562500", "181255.562500", "181256.562500", "181257.562500", "181258.562500", "181259.562500", "181300.562500", "181301.562500", "181302.562500", "181303.562500", "181304.562500", "181305.562500", "181306.562500", "181307.562500", "181308.562500", "181309.562500", "181310.562500", "181311.562500", "181312.562500", "181313.562500", "181314.562500", "181315.562500", "181316.562500", "181317.562500", "181318.562500", "181319.562500", "181320.562500", "181321.562500", "181322.562500", "181323.562500", "181324.562500", "181325.562500", "181326.562500", "181327.562500", "181328.562500", "181329.562500", "181330.562500", "181331.562500", "181332.562500", "181333.562500", "181334.562500", "181335.562500", "181336.562500", "181337.562500", "181338.562500", "181339.562500", "181340.562500", "181341.562500", "181342.562500", "181343.562500", "181344.562500", "181345.562500", "181346.562500", "181347.562500", "181348.562500", "181349.562500", "181350.562500", "181351.562500", "181352.562500", "181353.562500", "181354.562500", "181355.562500", "181356.562500", "181357.562500", "181358.562500", "181359.562500", "181400.562500", "181401.562500", "181402.562500", "181403.562500", "181404.562500", "181405.562500", "181406.562500", "181407.562500", "181408.562500", "181409.562500", "181410.562500", "181411.562500", "181412.562500", "181413.562500", "181414.562500", "181415.562500", "181416.562500", "181417.562500", "181418.562500", "181419.562500", "181420.562500", "181421.562500", "181422.562500", "181423.562500", "181424.562500", "181425.562500", "181426.562500", "181427.562500", "181428.562500", "181429.562500", "181430.562500", "181431.562500", "181432.562500", "181433.562500", "181434.562500", "181435.562500", "181436.562500", "181437.562500", "181438.562500", "181439.562500", "181440.562500", "181441.562500", "181442.562500", "181443.562500", "181444.562500", "181445.562500", "181446.562500", "181447.562500", "181448.562500", "181449.562500", "181450.562500", "181451.562500", "181452.562500", "181453.562500", "181454.562500", "181455.562500", "181456.562500", "181457.562500", "181458.562500", "181459.562500", "181500.562500", "181501.562500", "181502.562500", "181503.562500", "181504.562500", "181505.562500", "181506.562500", "181507.562500", "181508.562500", "181509.562500", "181510.562500", "181511.562500", "181512.562500", "181513.562500", "181514.562500", "181515.562500", "181516.562500", "181517.562500", "181518.562500", "181519.562500", "181520.562500", "181521.562500", "181522.562500", "181523.562500", "181524.562500", "181525.562500", "181526.562500", "181527.562500", "181528.562500", "181529.562500", "181530.562500", "181531.562500", "181532.562500", "181533.562500", "181534.562500", "181535.562500", "181536.562500", "181537.562500", "181538.562500", "181539.562500", "181540.562500", "181541.562500", "181542.562500", "181543.562500", "181544.562500", "181545.562500", "181546.562500", "181547.562500", "181548.562500", "181549.562500", "181550.562500", "181551.562500", "181552.562500", "181553.562500", "181554.562500", "181555.562500", "181556.562500", "181557.562500", "181558.562500", "181559.562500", "181600.562500", "181601.562500", "181602.562500", "181603.562500", "181604.562500", "181605.562500", "181606.562500", "181607.562500", "181608.562500", "181609.562500", "181610.562500", "181611.562500", "181612.562500", "181613.562500", "181614.562500", "181615.562500", "181616.562500", "181617.562500", "181618.562500", "181619.562500", "181620.562500", "181621.562500", "181622.562500", "181623.562500", "181624.562500", "181625.562500", "181626.562500", "181627.562500", "181628.562500", "181629.562500", "181630.562500", "181631.562500", "181632.562500", "181633.562500", "181634.562500", "181635.562500", "181636.562500", "181637.562500", "181638.562500", "181639.562500", "181640.562500", "181641.562500", "181642.562500", "181643.562500", "181644.562500", "181645.562500", "181646.562500", "181647.562500", "181648.562500", "181649.562500", "181650.562500", "181651.562500", "181652.562500", "181653.562500", "181654.562500", "181655.562500", "181656.562500", "181657.562500", "181658.562500", "181659.562500", "181700.562500", "181701.562500", "181702.562500", "181703.562500", "181704.562500", "181705.562500", "181706.562500", "181707.562500", "181708.562500", "181709.562500", "181710.562500", "181711.562500", "181712.562500", "181713.562500", "181714.562500", "181715.562500", "181716.562500", "181717.562500", "181718.562500", "181719.562500", "181720.562500", "181721.562500", "181722.562500", "181723.562500", "181724.562500", "181725.562500", "181726.562500", "181727.562500", "181728.562500", "181729.562500", "181730.562500", "181731.562500", "181732.562500", "181733.562500", "181734.562500", "181735.562500", "181736.562500", "181737.562500", "181738.562500", "181739.562500", "181740.562500", "181741.562500", "181742.562500", "181743.562500", "181744.562500", "181745.562500", "181746.562500", "181747.562500", "181748.562500", "181749.562500", "181750.562500", "181751.562500", "181752.562500", "181753.562500", "181754.562500", "181755.562500", "181756.562500", "181757.562500", "181758.562500", "181759.562500", "181800.562500", "181801.562500", "181802.562500", "181803.562500", "181804.562500", "181805.562500", "181806.562500", "181807.562500", "181808.562500", "181809.562500", "181810.562500", "181811.562500", "181812.562500", "181813.562500", "181814.562500", "181815.562500", "181816.562500", "181817.562500", "181818.562500", "181819.562500", "181820.562500", "181821.562500", "181822.562500", "181823.562500", "181824.562500", "181825.562500", "181826.562500", "181827.562500", "181828.562500", "181829.562500", "181830.562500", "181831.562500", "181832.562500", "181833.562500", "181834.562500", "181835.562500", "181836.562500", "181837.562500", "181838.562500", "181839.562500", "181840.562500", "181841.562500", "181842.562500", "181843.562500", "181844.562500", "181845.562500", "181846.562500", "181847.562500", "181848.562500", "181849.562500", "181850.562500", "181851.562500", "181852.562500", "181853.562500", "181854.562500", "181855.562500", "181856.562500", "181857.562500", "181858.562500", "181859.562500", "181900.562500", "181901.562500", "181902.562500", "181903.562500", "181904.562500", "181905.562500", "181906.562500", "181907.562500", "181908.562500", "181909.562500", "181910.562500", "181911.562500", "181912.562500", "181913.562500", "181914.562500", "181915.562500", "181916.562500", "181917.562500", "181918.562500", "181919.562500", "181920.562500", "181921.562500", "181922.562500", "181923.562500", "181924.562500", "181925.562500", "181926.562500", "181927.562500", "181928.562500", "181929.562500", "181930.562500", "181931.562500", "181932.562500", "181933.562500", "181934.562500", "181935.562500", "181936.562500", "181937.562500", "181938.562500", "181939.562500", "181940.562500", "181941.562500", "181942.562500", "181943.562500", "181944.562500", "181945.562500", "181946.562500", "181947.562500", "181948.562500", "181949.562500", "181950.562500", "181951.562500", "181952.562500", "181953.562500", "181954.562500", "181955.562500", "181956.562500", "181957.562500", "181958.562500", "181959.562500", "182000.562500", "182001.562500", "182002.562500", "182003.562500", "182004.562500", "182005.562500", "182006.562500", "182007.562500", "182008.562500", "182009.562500", "182010.562500", "182011.562500", "182012.562500", "182013.562500", "182014.562500", "182015.562500", "182016.562500", "182017.562500", "182018.562500", "182019.562500", "182020.562500", "182021.562500", "182022.562500", "182023.562500", "182024.562500", "182025.562500", "182026.562500", "182027.562500", "182028.562500", "182029.562500", "182030.562500", "182031.562500", "182032.562500", "182033.562500", "182034.562500", "182035.562500", "182036.562500", "182037.562500", "182038.562500", "182039.562500", "182040.562500", "182041.562500", "182042.562500", "182043.562500", "182044.562500", "182045.562500", "182046.562500", "182047.562500", "182048.562500", "182049.562500", "182050.562500", "182051.562500", "182052.562500", "182053.562500", "182054.562500", "182055.562500", "182056.562500", "182057.562500", "182058.562500", "182059.562500", "182100.562500", "182101.562500", "182102.562500", "182103.562500", "182104.562500", "182105.562500", "182106.562500", "182107.562500", "182108.562500", "182109.562500", "182110.562500", "182111.562500", "182112.562500", "182113.562500", "182114.562500", "182115.562500", "182116.562500", "182117.562500", "182118.562500", "182119.562500", "182120.562500", "182121.562500", "182122.562500", "182123.562500", "182124.562500", "182125.562500", "182126.562500", "182127.562500", "182128.562500", "182129.562500", "182130.562500", "182131.562500", "182132.562500", "182133.562500", "182134.562500", "182135.562500", "182136.562500", "182137.562500", "182138.562500", "182139.562500", "182140.562500", "182141.562500", "182142.562500", "182143.562500", "182144.562500", "182145.562500", "182146.562500", "182147.562500", "182148.562500", "182149.562500", "182150.562500", "182151.562500", "182152.562500", "182153.562500", "182154.562500", "182155.562500", "182156.562500", "182157.562500", "182158.562500", "182159.562500", "182200.562500", "182201.562500", "182202.562500", "182203.562500", "182204.562500", "182205.562500", "182206.562500", "182207.562500", "182208.562500", "182209.562500", "182210.562500", "182211.562500", "182212.562500", "182213.562500", "182214.562500", "182215.562500", "182216.562500", "182217.562500", "182218.562500", "182219.562500", "182220.562500", "182221.562500", "182222.562500", "182223.562500", "182224.562500", "182225.562500", "182226.562500", "182227.562500", "182228.562500", "182229.562500", "182230.562500", "182231.562500", "182232.562500", "182233.562500", "182234.562500", "182235.562500", "182236.562500", "182237.562500", "182238.562500", "182239.562500", "182240.562500", "182241.562500", "182242.562500", "182243.562500", "182244.562500", "182245.562500", "182246.562500", "182247.562500", "182248.562500", "182249.562500", "182250.562500", "182251.562500", "182252.562500", "182253.562500", "182254.562500", "182255.562500", "182256.562500", "182257.562500", "182258.562500", "182259.562500"],
