{
  "AcquisitionMatrixPE": 96,
  "AcquisitionNumber": 1,
  "AcquisitionTime": "16:31:36.295000",
  "BandwidthPerPixelPhaseEncode": 18.939,
  "BaseResolution": 96,
  "BodyPartExamined": "BRAIN",
  "ConsistencyInfo": "N4_VE11C_LATEST_20160120",
  "ConversionSoftware": "dcm2niix",
  "ConversionSoftwareVersion": "v1.0.20190902",
  "DerivedVendorReportedEchoSpacing": 0.000550011,
  "DeviceSerialNumber": "66112",
  "DwellTime": 2.2e-06,
  "EchoTime": 0.033,
  "EchoTrainLength": 96,
  "EffectiveEchoSpacing": 0.000550011,
  "FlipAngle": 59,
  "ImageOrientationPatientDICOM": [0.999979, 0.000591778, -0.00642764, -0.000349105, 0.999289, 0.0376903],
  "ImageType": [
    "ORIGINAL",
    "PRIMARY",
    "FMRI",
    "NONE",
    "ND",
    "NORM",
    "MOSAIC"
],
  "ImagingFrequency": 123.252,
  "InPlanePhaseEncodingDirectionDICOM": "COL",
  "InstitutionAddress": "Maynard_3_Hanover_NH_US_03755",
  "InstitutionName": "Dartmouth_College_-_PBS",
  "InstitutionalDepartmentName": "Department",
  "MRAcquisitionType": "2D",
  "MagneticFieldStrength": 3,
  "Manufacturer": "Siemens",
  "ManufacturersModelName": "Prisma",
  "Modality": "MR",
  "MultibandAccelerationFactor": 4,
  "PartialFourier": 1,
  "PatientPosition": "HFS",
  "PercentPhaseFOV": 100,
  "PhaseEncodingDirection": "j-",
  "PhaseEncodingSteps": 96,
  "PhaseResolution": 1,
  "PixelBandwidth": 2365,
  "ProcedureStepDescription": "Gobbini_Matteo_1037_budapest",
  "ProtocolName": "func_run-03_task-movie",
  "PulseSequenceDetails": "%SiemensSeq%_ep2d_bold",
  "ReceiveCoilActiveElements": "HEA;HEP",
  "ReceiveCoilName": "Head_32",
  "ReconMatrixPE": 96,
  "RefLinesPE": 12,
  "RepetitionTime": 1,
  "SAR": 0.0563239,
  "ScanOptions": "FS",
  "ScanningSequence": "EP",
  "SequenceName": "_epfid2d1_96",
  "SequenceVariant": "SK",
  "SeriesDescription": "func_run-03_task-movie",
  "SeriesNumber": 22,
  "ShimSetting": [4124, -7732, -7422, 752, -5, -110, 100, 111],
  "SliceThickness": 2.5,
  "SliceTiming": [0.735, 0, 0.49, 0.0825, 0.5725, 0.165, 0.655, 0.3275, 0.8175, 0.41, 0.9, 0.245, 0.735, 0, 0.49, 0.0825, 0.5725, 0.165, 0.655, 0.3275, 0.8175, 0.41, 0.9, 0.245, 0.735, 0, 0.49, 0.0825, 0.5725, 0.165, 0.655, 0.3275, 0.8175, 0.41, 0.9, 0.245, 0.735, 0, 0.49, 0.0825, 0.5725, 0.165, 0.655, 0.3275, 0.8175, 0.41, 0.9, 0.245],
  "SoftwareVersions": "syngo_MR_E11",
  "SpacingBetweenSlices": 2.5,
  "StationName": "AWP66112",
  "TaskName": "movie",
  "TotalReadoutTime": 0.0522511,
  "TxRefAmp": 258.894,
  "dcmmeta_affine": [
    [-2.499948024749756, -0.0008727624663151801, -0.016113441437482834, 122.28588104248047],
    [-0.0014794444432482123, 2.4982235431671143, 0.09421813488006592, -111.41864013671875],
    [-0.016069097444415092, -0.09422570466995239, 2.4981720447540283, -91.10106658935547],
    [0.0, 0.0, 0.0, 1.0]
],
  "dcmmeta_reorient_transform": [
    [0.0, -1.0, 0.0, 95.0],
    [1.0, 0.0, 0.0, 0.0],
    [0.0, 0.0, 1.0, 0.0],
    [0.0, 0.0, 0.0, 1.0]
],
  "dcmmeta_shape": [96, 96, 48, 535],
  "dcmmeta_slice_dim": 2,
  "dcmmeta_version": 0.6,
  "global": {
    "const": {
      "AccessionNumber": "A001330",
      "AcquisitionMatrix": [96, 0, 0, 96],
      "AngioFlag": "N",
      "BitsAllocated": 16,
      "BitsStored": 12,
      "BodyPartExamined": "BRAIN",
      "Columns": 672,
      "EchoNumbers": 1,
      "EchoTime": 33.0,
      "EchoTrainLength": 96,
      "FlipAngle": 59.0,
      "HighBit": 11,
      "ImageOrientationPatient": [0.99997916740889, 0.00059177777741, -0.0064276393252, -0.0003491049934, 0.99928940788205, 0.03769028283858],
      "ImagePositionPatient": [-841.93661575795, -845.82704865704, -122.56161542427],
      "ImageType": [
        "ORIGINAL",
        "PRIMARY",
        "FMRI",
        "NONE",
        "ND",
        "NORM",
        "MOSAIC"
],
      "ImagedNucleus": "1H",
      "ImagingFrequency": 123.252322,
      "InPlanePhaseEncodingDirection": "COL",
      "MRAcquisitionType": "2D",
      "MagneticFieldStrength": 3.0,
      "Manufacturer": "SIEMENS",
      "ManufacturerModelName": "Prisma",
      "Modality": "MR",
      "NumberOfAverages": 1.0,
      "NumberOfPhaseEncodingSteps": 96,
      "PercentPhaseFieldOfView": 100.0,
      "PercentSampling": 100.0,
      "PerformedProcedureStepStartTime": "155344.097000",
      "PhotometricInterpretation": "MONOCHROME2",
      "PixelBandwidth": 2365.0,
      "PixelRepresentation": 0,
      "PixelSpacing": [2.5, 2.5],
      "ProtocolName": "func_run-03_task-movie",
      "RepetitionTime": 1000.0,
      "Rows": 672,
      "SAR": 0.05632386204143,
      "SamplesPerPixel": 1,
      "ScanOptions": "FS",
      "ScanningSequence": "EP",
      "SequenceName": "*epfid2d1_96",
      "SequenceVariant": "SK",
      "SeriesDescription": "func_run-03_task-movie",
      "SeriesNumber": 22,
      "SeriesTime": "163137.614000",
      "SliceLocation": -96.021697566938,
      "SliceThickness": 2.5,
      "SmallestImagePixelValue": 0,
      "SoftwareVersions": "syngo MR E11",
      "SpacingBetweenSlices": 2.5000000786381,
      "SpecificCharacterSet": "ISO_IR 100",
      "StudyID": "1",
      "StudyTime": "155343.917000",
      "TransmitCoilName": "Body",
      "VariableFlipAngleFlag": "N",
      "WindowCenterWidthExplanation": "Algo1",
      "dBdt": 0.0},
    "slices": {}
  },
  "time": {
    "samples": {
      "AcquisitionNumber": [1, 2, 3, 4, 5, 6, 7, 8, 9, 10, 11, 12, 13, 14, 15, 16, 17, 18, 19, 20, 21, 22, 23, 24, 25, 26, 27, 28, 29, 30, 31, 32, 33, 34, 35, 36, 37, 38, 39, 40, 41, 42, 43, 44, 45, 46, 47, 48, 49, 50, 51, 52, 53, 54, 55, 56, 57, 58, 59, 60, 61, 62, 63, 64, 65, 66, 67, 68, 69, 70, 71, 72, 73, 74, 75, 76, 77, 78, 79, 80, 81, 82, 83, 84, 85, 86, 87, 88, 89, 90, 91, 92, 93, 94, 95, 96, 97, 98, 99, 100, 101, 102, 103, 104, 105, 106, 107, 108, 109, 110, 111, 112, 113, 114, 115, 116, 117, 118, 119, 120, 121, 122, 123, 124, 125, 126, 127, 128, 129, 130, 131, 132, 133, 134, 135, 136, 137, 138, 139, 140, 141, 142, 143, 144, 145, 146, 147, 148, 149, 150, 151, 152, 153, 154, 155, 156, 157, 158, 159, 160, 161, 162, 163, 164, 165, 166, 167, 168, 169, 170, 171, 172, 173, 174, 175, 176, 177, 178, 179, 180, 181, 182, 183, 184, 185, 186, 187, 188, 189, 190, 191, 192, 193, 194, 195, 196, 197, 198, 199, 200, 201, 202, 203, 204, 205, 206, 207, 208, 209, 210, 211, 212, 213, 214, 215, 216, 217, 218, 219, 220, 221, 222, 223, 224, 225, 226, 227, 228, 229, 230, 231, 232, 233, 234, 235, 236, 237, 238, 239, 240, 241, 242, 243, 244, 245, 246, 247, 248, 249, 250, 251, 252, 253, 254, 255, 256, 257, 258, 259, 260, 261, 262, 263, 264, 265, 266, 267, 268, 269, 270, 271, 272, 273, 274, 275, 276, 277, 278, 279, 280, 281, 282, 283, 284, 285, 286, 287, 288, 289, 290, 291, 292, 293, 294, 295, 296, 297, 298, 299, 300, 301, 302, 303, 304, 305, 306, 307, 308, 309, 310, 311, 312, 313, 314, 315, 316, 317, 318, 319, 320, 321, 322, 323, 324, 325, 326, 327, 328, 329, 330, 331, 332, 333, 334, 335, 336, 337, 338, 339, 340, 341, 342, 343, 344, 345, 346, 347, 348, 349, 350, 351, 352, 353, 354, 355, 356, 357, 358, 359, 360, 361, 362, 363, 364, 365, 366, 367, 368, 369, 370, 371, 372, 373, 374, 375, 376, 377, 378, 379, 380, 381, 382, 383, 384, 385, 386, 387, 388, 389, 390, 391, 392, 393, 394, 395, 396, 397, 398, 399, 400, 401, 402, 403, 404, 405, 406, 407, 408, 409, 410, 411, 412, 413, 414, 415, 416, 417, 418, 419, 420, 421, 422, 423, 424, 425, 426, 427, 428, 429, 430, 431, 432, 433, 434, 435, 436, 437, 438, 439, 440, 441, 442, 443, 444, 445, 446, 447, 448, 449, 450, 451, 452, 453, 454, 455, 456, 457, 458, 459, 460, 461, 462, 463, 464, 465, 466, 467, 468, 469, 470, 471, 472, 473, 474, 475, 476, 477, 478, 479, 480, 481, 482, 483, 484, 485, 486, 487, 488, 489, 490, 491, 492, 493, 494, 495, 496, 497, 498, 499, 500, 501, 502, 503, 504, 505, 506, 507, 508, 509, 510, 511, 512, 513, 514, 515, 516, 517, 518, 519, 520, 521, 522, 523, 524, 525, 526, 527, 528, 529, 530, 531, 532, 533, 534, 535],
      "AcquisitionTime": ["163136.295000", "163137.295000", "163138.295000", "163139.295000", "163140.295000", "163141.295000", "163142.295000", "163143.295000", "163144.295000", "163145.295000", "163146.295000", "163147.295000", "163148.295000", "163149.295000", "163150.295000", "163151.295000", "163152.295000", "163153.295000", "163154.295000", "163155.295000", "163156.295000", "163157.295000", "163158.295000", "163159.295000", "163200.295000", "163201.295000", "163202.295000", "163203.295000", "163204.295000", "163205.295000", "163206.295000", "163207.295000", "163208.295000", "163209.295000", "163210.295000", "163211.295000", "163212.295000", "163213.295000", "163214.295000", "163215.295000", "163216.295000", "163217.295000", "163218.295000", "163219.295000", "163220.295000", "163221.295000", "163222.295000", "163223.295000", "163224.295000", "163225.295000", "163226.295000", "163227.295000", "163228.295000", "163229.295000", "163230.295000", "163231.295000", "163232.295000", "163233.295000", "163234.295000", "163235.295000", "163236.295000", "163237.295000", "163238.295000", "163239.295000", "163240.295000", "163241.295000", "163242.295000", "163243.295000", "163244.295000", "163245.295000", "163246.295000", "163247.295000", "163248.295000", "163249.295000", "163250.295000", "163251.295000", "163252.295000", "163253.295000", "163254.295000", "163255.295000", "163256.295000", "163257.295000", "163258.295000", "163259.295000", "163300.295000", "163301.295000", "163302.295000", "163303.295000", "163304.295000", "163305.295000", "163306.295000", "163307.295000", "163308.295000", "163309.295000", "163310.295000", "163311.295000", "163312.295000", "163313.295000", "163314.295000", "163315.295000", "163316.295000", "163317.295000", "163318.295000", "163319.295000", "163320.295000", "163321.295000", "163322.295000", "163323.295000", "163324.295000", "163325.295000", "163326.295000", "163327.295000", "163328.295000", "163329.295000", "163330.295000", "163331.295000", "163332.295000", "163333.295000", "163334.295000", "163335.295000", "163336.295000", "163337.295000", "163338.295000", "163339.295000", "163340.295000", "163341.295000", "163342.295000", "163343.295000", "163344.295000", "163345.295000", "163346.295000", "163347.295000", "163348.295000", "163349.295000", "163350.295000", "163351.295000", "163352.295000", "163353.295000", "163354.295000", "163355.295000", "163356.295000", "163357.295000", "163358.295000", "163359.295000", "163400.295000", "163401.295000", "163402.295000", "163403.295000", "163404.295000", "163405.295000", "163406.295000", "163407.295000", "163408.295000", "163409.295000", "163410.295000", "163411.295000", "163412.295000", "163413.295000", "163414.295000", "163415.295000", "163416.295000", "163417.295000", "163418.295000", "163419.295000", "163420.295000", "163421.295000", "163422.295000", "163423.295000", "163424.295000", "163425.295000", "163426.295000", "163427.295000", "163428.295000", "163429.295000", "163430.295000", "163431.295000", "163432.295000", "163433.295000", "163434.295000", "163435.295000", "163436.295000", "163437.295000", "163438.295000", "163439.295000", "163440.295000", "163441.295000", "163442.295000", "163443.295000", "163444.295000", "163445.295000", "163446.295000", "163447.295000", "163448.295000", "163449.295000", "163450.295000", "163451.295000", "163452.295000", "163453.295000", "163454.295000", "163455.295000", "163456.295000", "163457.295000", "163458.295000", "163459.295000", "163500.295000", "163501.295000", "163502.295000", "163503.295000", "163504.295000", "163505.295000", "163506.295000", "163507.295000", "163508.295000", "163509.295000", "163510.295000", "163511.295000", "163512.295000", "163513.295000", "163514.295000", "163515.295000", "163516.295000", "163517.295000", "163518.295000", "163519.295000", "163520.295000", "163521.295000", "163522.295000", "163523.295000", "163524.295000", "163525.295000", "163526.295000", "163527.295000", "163528.295000", "163529.295000", "163530.295000", "163531.295000", "163532.295000", "163533.295000", "163534.295000", "163535.295000", "163536.295000", "163537.295000", "163538.295000", "163539.295000", "163540.295000", "163541.295000", "163542.295000", "163543.295000", "163544.295000", "163545.295000", "163546.295000", "163547.295000", "163548.295000", "163549.295000", "163550.295000", "163551.295000", "163552.295000", "163553.295000", "163554.295000", "163555.295000", "163556.295000", "163557.295000", "163558.295000", "163559.295000", "163600.295000", "163601.295000", "163602.295000", "163603.295000", "163604.295000", "163605.295000", "163606.295000", "163607.295000", "163608.295000", "163609.295000", "163610.295000", "163611.295000", "163612.295000", "163613.295000", "163614.295000", "163615.295000", "163616.295000", "163617.295000", "163618.295000", "163619.295000", "163620.295000", "163621.295000", "163622.295000", "163623.295000", "163624.295000", "163625.295000", "163626.295000", "163627.295000", "163628.295000", "163629.295000", "163630.295000", "163631.295000", "163632.295000", "163633.295000", "163634.295000", "163635.295000", "163636.295000", "163637.295000", "163638.295000", "163639.295000", "163640.295000", "163641.295000", "163642.295000", "163643.295000", "163644.295000", "163645.295000", "163646.295000", "163647.295000", "163648.295000", "163649.295000", "163650.295000", "163651.295000", "163652.295000", "163653.295000", "163654.295000", "163655.295000", "163656.295000", "163657.295000", "163658.295000", "163659.295000", "163700.295000", "163701.295000", "163702.295000", "163703.295000", "163704.295000", "163705.295000", "163706.295000", "163707.295000", "163708.295000", "163709.295000", "163710.295000", "163711.295000", "163712.295000", "163713.295000", "163714.295000", "163715.295000", "163716.295000", "163717.295000", "163718.295000", "163719.295000", "163720.295000", "163721.295000", "163722.295000", "163723.295000", "163724.295000", "163725.295000", "163726.295000", "163727.295000", "163728.295000", "163729.295000", "163730.295000", "163731.295000", "163732.295000", "163733.295000", "163734.295000", "163735.295000", "163736.295000", "163737.295000", "163738.295000", "163739.295000", "163740.295000", "163741.295000", "163742.295000", "163743.295000", "163744.295000", "163745.295000", "163746.295000", "163747.295000", "163748.295000", "163749.295000", "163750.295000", "163751.295000", "163752.295000", "163753.295000", "163754.295000", "163755.295000", "163756.295000", "163757.295000", "163758.295000", "163759.295000", "163800.295000", "163801.295000", "163802.295000", "163803.295000", "163804.295000", "163805.295000", "163806.295000", "163807.295000", "163808.295000", "163809.295000", "163810.295000", "163811.295000", "163812.295000", "163813.295000", "163814.295000", "163815.295000", "163816.295000", "163817.295000", "163818.295000", "163819.295000", "163820.295000", "163821.295000", "163822.295000", "163823.295000", "163824.295000", "163825.295000", "163826.295000", "163827.295000", "163828.295000", "163829.295000", "163830.295000", "163831.295000", "163832.295000", "163833.295000", "163834.295000", "163835.295000", "163836.295000", "163837.295000", "163838.295000", "163839.295000", "163840.295000", "163841.295000", "163842.295000", "163843.295000", "163844.295000", "163845.295000", "163846.295000", "163847.295000", "163848.295000", "163849.295000", "163850.295000", "163851.295000", "163852.295000", "163853.295000", "163854.295000", "163855.295000", "163856.295000", "163857.295000", "163858.295000", "163859.295000", "163900.295000", "163901.295000", "163902.295000", "163903.295000", "163904.295000", "163905.295000", "163906.295000", "163907.295000", "163908.295000", "163909.295000", "163910.295000", "163911.295000", "163912.295000", "163913.295000", "163914.295000", "163915.295000", "163916.295000", "163917.295000", "163918.295000", "163919.295000", "163920.295000", "163921.295000", "163922.295000", "163923.295000", "163924.295000", "163925.295000", "163926.295000", "163927.295000", "163928.295000", "163929.295000", "163930.295000", "163931.295000", "163932.295000", "163933.295000", "163934.295000", "163935.295000", "163936.295000", "163937.295000", "163938.295000", "163939.295000", "163940.295000", "163941.295000", "163942.295000", "163943.295000", "163944.295000", "163945.295000", "163946.295000", "163947.295000", "163948.295000", "163949.295000", "163950.295000", "163951.295000", "163952.295000", "163953.295000", "163954.295000", "163955.295000", "163956.295000", "163957.295000", "163958.295000", "163959.295000", "164000.295000", "164001.295000", "164002.295000", "164003.295000", "164004.295000", "164005.295000", "164006.295000", "164007.295000", "164008.295000", "164009.295000", "164010.295000", "164011.295000", "164012.295000", "164013.295000", "164014.295000", "164015.295000", "164016.295000", "164017.295000", "164018.295000", "164019.295000", "164020.295000", "164021.295000", "164022.295000", "164023.295000", "164024.295000", "164025.295000", "164026.295000", "164027.295000", "164028.295000", "164029.295000", "164030.295000"],
      "ContentTime": ["163137.618000", "163138.490000", "163139.532000", "163140.506000", "163141.502000", "163142.498000", "163143.496000", "163144.536000", "163145.498000", "163146.506000", "163147.526000", "163148.493000", "163149.493000", "163150.501000", "163151.505000", "163152.522000", "163153.487000", "163154.497000", "163155.464000", "163156.500000", "163157.500000", "163158.530000", "163159.466000", "163200.498000", "163201.486000", "163202.469000", "163203.503000", "163204.514000", "163205.470000", "163206.475000", "163207.493000", "163208.478000", "163209.491000", "163210.501000", "163211.481000", "163212.500000", "163213.507000", "163214.503000", "163215.515000", "163216.483000", "163217.495000", "163218.504000", "163219.495000", "163220.479000", "163221.499000", "163222.473000", "163223.502000", "163224.521000", "163225.439000", "163226.492000", "163227.506000", "163228.526000", "163229.509000", "163230.541000", "163231.539000", "163232.526000", "163233.505000", "163234.453000", "163235.488000", "163236.465000", "163237.473000", "163238.485000", "163239.593000", "163240.530000", "163241.486000", "163242.466000", "163243.513000", "163244.515000", "163245.471000", "163246.511000", "163247.474000", "163248.476000", "163249.497000", "163250.487000", "163251.483000", "163252.490000", "163253.570000", "163254.499000", "163255.465000", "163256.488000", "163257.465000", "163258.492000", "163259.498000", "163300.474000", "163301.542000", "163302.501000", "163303.473000", "163304.486000", "163305.499000", "163306.482000", "163307.483000", "163308.504000", "163309.490000", "163310.479000", "163311.478000", "163312.485000", "163313.484000", "163314.484000", "163315.492000", "163316.483000", "163317.489000", "163318.507000", "163319.480000", "163320.505000", "163321.462000", "163322.497000", "163323.490000", "163324.523000", "163325.510000", "163326.506000", "163327.488000", "163328.489000", "163329.496000", "163330.496000", "163331.499000", "163332.492000", "163333.497000", "163334.485000", "163335.511000", "163336.487000", "163337.538000", "163338.543000", "163339.522000", "163340.520000", "163341.486000", "163342.509000", "163343.493000", "163344.501000", "163345.487000", "163346.524000", "163347.516000", "163348.516000", "163349.521000", "163350.488000", "163351.513000", "163352.480000", "163353.507000", "163354.503000", "163355.553000", "163356.496000", "163357.497000", "163358.558000", "163359.513000", "163400.501000", "163401.512000", "163402.489000", "163403.485000", "163404.476000", "163405.490000", "163406.472000", "163407.526000", "163408.494000", "163409.523000", "163410.477000", "163411.547000", "163412.529000", "163413.504000", "163414.516000", "163415.489000", "163416.477000", "163417.482000", "163418.505000", "163419.556000", "163420.572000", "163421.496000", "163422.486000", "163423.501000", "163424.506000", "163425.526000", "163426.486000", "163427.532000", "163428.484000", "163429.495000", "163430.497000", "163431.506000", "163432.481000", "163433.475000", "163434.458000", "163435.497000", "163436.538000", "163437.509000", "163438.490000", "163439.463000", "163440.498000", "163441.461000", "163442.488000", "163443.484000", "163444.510000", "163445.512000", "163446.482000", "163447.479000", "163448.490000", "163449.481000", "163450.501000", "163451.483000", "163452.492000", "163453.501000", "163454.492000", "163455.484000", "163456.461000", "163457.503000", "163458.483000", "163459.500000", "163500.494000", "163501.471000", "163502.497000", "163503.504000", "163504.503000", "163505.486000", "163506.508000", "163507.493000", "163508.511000", "163509.513000", "163510.496000", "163511.512000", "163512.533000", "163513.482000", "163514.500000", "163515.491000", "163516.519000", "163517.494000", "163518.502000", "163519.493000", "163520.484000", "163521.487000", "163522.459000", "163523.479000", "163524.481000", "163525.493000", "163526.495000", "163527.498000", "163528.482000", "163529.463000", "163530.468000", "163531.529000", "163532.504000", "163533.511000", "163534.492000", "163535.487000", "163536.492000", "163537.514000", "163538.499000", "163539.529000", "163540.540000", "163541.508000", "163542.502000", "163543.496000", "163544.502000", "163545.502000", "163546.483000", "163547.534000", "163548.510000", "163549.514000", "163550.498000", "163551.492000", "163552.498000", "163553.464000", "163554.480000", "163555.499000", "163556.508000", "163557.551000", "163558.492000", "163559.465000", "163600.480000", "163601.514000", "163602.501000", "163603.506000", "163604.461000", "163605.490000", "163606.502000", "163607.493000", "163608.516000", "163609.527000", "163610.503000", "163611.497000", "163612.505000", "163613.473000", "163614.473000", "163615.453000", "163616.506000", "163617.479000", "163618.480000", "163619.527000", "163620.539000", "163621.465000", "163622.527000", "163623.498000", "163624.485000", "163625.481000", "163626.509000", "163627.486000", "163628.500000", "163629.474000", "163630.519000", "163631.472000", "163632.512000", "163633.489000", "163634.498000", "163635.502000", "163636.529000", "163637.518000", "163638.483000", "163639.490000", "163640.497000", "163641.492000", "163642.479000", "163643.500000", "163644.495000", "163645.538000", "163646.491000", "163647.499000", "163648.481000", "163649.478000", "163650.463000", "163651.476000", "163652.487000", "163653.508000", "163654.468000", "163655.474000", "163656.494000", "163657.472000", "163658.485000", "163659.488000", "163700.481000", "163701.503000", "163702.522000", "163703.467000", "163704.500000", "163705.503000", "163706.492000", "163707.484000", "163708.504000", "163709.483000", "163710.500000", "163711.497000", "163712.518000", "163713.514000", "163714.501000", "163715.484000", "163716.494000", "163717.493000", "163718.508000", "163719.489000", "163720.536000", "163721.515000", "163722.506000", "163723.502000", "163724.504000", "163725.514000", "163726.514000", "163727.499000", "163728.493000", "163729.495000", "163730.514000", "163731.486000", "163732.505000", "163733.492000", "163734.501000", "163735.489000", "163736.539000", "163737.497000", "163738.497000", "163739.498000", "163740.506000", "163741.497000", "163742.498000", "163743.544000", "163744.511000", "163745.511000", "163746.493000", "163747.483000", "163748.463000", "163749.535000", "163750.532000", "163751.484000", "163752.503000", "163753.491000", "163754.484000", "163755.507000", "163756.506000", "163757.504000", "163758.495000", "163759.536000", "163800.475000", "163801.458000", "163802.497000", "163803.502000", "163804.494000", "163805.481000", "163806.513000", "163807.482000", "163808.504000", "163809.473000", "163810.501000", "163811.457000", "163812.469000", "163813.491000", "163814.547000", "163815.464000", "163816.519000", "163817.468000", "163818.496000", "163819.471000", "163820.521000", "163821.497000", "163822.502000", "163823.498000", "163824.497000", "163825.495000", "163826.498000", "163827.469000", "163828.486000", "163829.491000", "163830.500000", "163831.496000", "163832.491000", "163833.524000", "163834.493000", "163835.489000", "163836.473000", "163837.486000", "163838.493000", "163839.505000", "163840.506000", "163841.476000", "163842.493000", "163843.496000", "163844.496000", "163845.490000", "163846.504000", "163847.485000", "163848.478000", "163849.477000", "163850.498000", "163851.478000", "163852.483000", "163853.484000", "163854.497000", "163855.499000", "163856.512000", "163857.479000", "163858.492000", "163859.506000", "163900.493000", "163901.510000", "163902.506000", "163903.489000", "163904.506000", "163905.503000", "163906.497000", "163907.554000", "163908.539000", "163909.461000", "163910.494000", "163911.471000", "163912.500000", "163913.495000", "163914.510000", "163915.535000", "163916.508000", "163917.503000", "163918.500000", "163919.498000", "163920.483000", "163921.500000", "163922.496000", "163923.509000", "163924.524000", "163925.521000", "163926.495000", "163927.486000", "163928.522000", "163929.502000", "163930.556000", "163931.502000", "163932.495000", "163933.487000", "163934.492000", "163935.495000", "163936.492000", "163937.504000", "163938.503000", "163939.483000", "163940.490000", "163941.504000", "163942.481000", "163943.477000", "163944.474000", "163945.481000", "163946.473000", "163947.497000", "163948.491000", "163949.509000", "163950.537000", "163951.484000", "163952.492000", "163953.474000", "163954.539000", "163955.549000", "163956.529000", "163957.534000", "163958.546000", "163959.556000", "164000.551000", "164001.549000", "164002.538000", "164003.541000", "164004.520000", "164005.548000", "164006.546000", "164007.527000", "164008.550000", "164009.573000", "164010.561000", "164011.552000", "164012.560000", "164013.544000", "164014.559000", "164015.543000", "164016.547000", "164017.568000", "164018.553000", "164019.542000", "164020.555000", "164021.543000", "164022.529000", "164023.542000", "164024.540000", "164025.533000", "164026.565000", "164027.533000", "164028.546000", "164029.497000", "164030.532000", "164031.541000"],
