{
  "AcquisitionMatrixPE": 96,
  "AcquisitionNumber": 1,
  "AcquisitionTime": "22:23:8.170000",
  "BandwidthPerPixelPhaseEncode": 18.939,
  "BaseResolution": 96,
  "BodyPartExamined": "BRAIN",
  "ConsistencyInfo": "N4_VE11C_LATEST_20160120",
  "ConversionSoftware": "dcm2niix",
  "ConversionSoftwareVersion": "v1.0.20190902",
  "DerivedVendorReportedEchoSpacing": 0.000550011,
  "DeviceSerialNumber": "66112",
  "DwellTime": 2.2e-06,
  "EchoTime": 0.033,
  "EchoTrainLength": 96,
  "EffectiveEchoSpacing": 0.000550011,
  "FlipAngle": 59,
  "ImageOrientationPatientDICOM": [0.998838, -0.034965, -0.0331824, 0.0324368, 0.996739, -0.0738922],
  "ImageType": [
    "ORIGINAL",
    "PRIMARY",
    "FMRI",
    "NONE",
    "ND",
    "NORM",
    "MOSAIC"
],
  "ImagingFrequency": 123.252,
  "InPlanePhaseEncodingDirectionDICOM": "COL",
  "InstitutionAddress": "Maynard_3_Hanover_NH_US_03755",
  "InstitutionName": "Dartmouth_College_-_PBS",
  "InstitutionalDepartmentName": "Department",
  "MRAcquisitionType": "2D",
  "MagneticFieldStrength": 3,
  "Manufacturer": "Siemens",
  "ManufacturersModelName": "Prisma",
  "Modality": "MR",
  "MultibandAccelerationFactor": 4,
  "PartialFourier": 1,
  "PatientPosition": "HFS",
  "PercentPhaseFOV": 100,
  "PhaseEncodingDirection": "j-",
  "PhaseEncodingSteps": 96,
  "PhaseResolution": 1,
  "PixelBandwidth": 2365,
  "ProcedureStepDescription": "Gobbini_Matteo_1037_budapest",
  "ProtocolName": "func_run-05_task-movie",
  "PulseSequenceDetails": "%SiemensSeq%_ep2d_bold",
  "ReceiveCoilActiveElements": "HEA;HEP",
  "ReceiveCoilName": "Head_32",
  "ReconMatrixPE": 96,
  "RefLinesPE": 12,
  "RepetitionTime": 1,
  "SAR": 0.0585408,
  "ScanOptions": "FS",
  "ScanningSequence": "EP",
  "SequenceName": "_epfid2d1_96",
  "SequenceVariant": "SK",
  "SeriesDescription": "func_run-05_task-movie",
  "SeriesNumber": 36,
  "ShimSetting": [4135, -7681, -7312, 663, -87, 35, 51, 82],
  "SliceThickness": 2.5,
  "SliceTiming": [0.735, 0, 0.49, 0.0825, 0.5725, 0.1625, 0.6525, 0.3275, 0.8175, 0.4075, 0.8975, 0.245, 0.735, 0, 0.49, 0.0825, 0.5725, 0.1625, 0.6525, 0.3275, 0.8175, 0.4075, 0.8975, 0.245, 0.735, 0, 0.49, 0.0825, 0.5725, 0.1625, 0.6525, 0.3275, 0.8175, 0.4075, 0.8975, 0.245, 0.735, 0, 0.49, 0.0825, 0.5725, 0.1625, 0.6525, 0.3275, 0.8175, 0.4075, 0.8975, 0.245],
  "SoftwareVersions": "syngo_MR_E11",
  "SpacingBetweenSlices": 2.5,
  "StationName": "AWP66112",
  "TaskName": "movie",
  "TotalReadoutTime": 0.0522511,
  "TxRefAmp": 274.053,
  "dcmmeta_affine": [
    [-2.497093677520752, 0.08109190315008163, -0.08914455771446228, 118.0248794555664],
    [0.0874125212430954, 2.4918465614318848, -0.18182486295700073, -108.87200927734375],
    [-0.08295601606369019, 0.1847304254770279, 2.4917850494384766, -76.52983856201172],
    [0.0, 0.0, 0.0, 1.0]
],
  "dcmmeta_reorient_transform": [
    [0.0, -1.0, 0.0, 95.0],
    [1.0, 0.0, 0.0, 0.0],
    [0.0, 0.0, 1.0, 0.0],
    [0.0, 0.0, 0.0, 1.0]
],
  "dcmmeta_shape": [96, 96, 48, 803],
  "dcmmeta_slice_dim": 2,
  "dcmmeta_version": 0.6,
  "global": {
    "const": {
      "AccessionNumber": "A001449",
      "AcquisitionMatrix": [96, 0, 0, 96],
      "AngioFlag": "N",
      "BitsAllocated": 16,
      "BitsStored": 12,
      "BodyPartExamined": "BRAIN",
      "Columns": 672,
      "EchoNumbers": 1,
      "EchoTime": 33.0,
      "EchoTrainLength": 96,
      "FlipAngle": 59.0,
      "HighBit": 11,
      "ImageOrientationPatient": [0.99883751237982, -0.0349650091163, -0.033182404982, 0.03243676098569, 0.99673858325983, -0.0738921726434],
      "ImagePositionPatient": [-868.24608452182, -820.3303788339, 18.113246096391],
      "ImageType": [
        "ORIGINAL",
        "PRIMARY",
        "FMRI",
        "NONE",
        "ND",
        "NORM",
        "MOSAIC"
],
      "ImagedNucleus": "1H",
      "ImagingFrequency": 123.252292,
      "InPlanePhaseEncodingDirection": "COL",
      "MRAcquisitionType": "2D",
      "MagneticFieldStrength": 3.0,
      "Manufacturer": "SIEMENS",
      "ManufacturerModelName": "Prisma",
      "Modality": "MR",
      "NumberOfAverages": 1.0,
      "NumberOfPhaseEncodingSteps": 96,
      "PercentPhaseFieldOfView": 100.0,
      "PercentSampling": 100.0,
      "PerformedProcedureStepStartTime": "210128.705000",
      "PhotometricInterpretation": "MONOCHROME2",
      "PixelBandwidth": 2365.0,
      "PixelRepresentation": 0,
      "PixelSpacing": [2.5, 2.5],
      "ProtocolName": "func_run-05_task-movie",
      "RepetitionTime": 1000.0,
      "Rows": 672,
      "SAR": 0.05854084821656,
      "SamplesPerPixel": 1,
      "ScanOptions": "FS",
      "ScanningSequence": "EP",
      "SequenceName": "*epfid2d1_96",
      "SequenceVariant": "SK",
      "SeriesDescription": "func_run-05_task-movie",
      "SeriesNumber": 36,
      "SeriesTime": "222309.544000",
      "SliceLocation": -72.568621897515,
      "SliceThickness": 2.5,
      "SmallestImagePixelValue": 0,
      "SoftwareVersions": "syngo MR E11",
      "SpacingBetweenSlices": 2.4999999929872,
      "SpecificCharacterSet": "ISO_IR 100",
      "StudyID": "1",
      "StudyTime": "210128.541000",
      "TransmitCoilName": "Body",
      "VariableFlipAngleFlag": "N",
      "WindowCenterWidthExplanation": "Algo1",
      "dBdt": 0.0},
    "slices": {}
  },
  "time": {
    "samples": {
      "AcquisitionNumber": [1, 2, 3, 4, 5, 6, 7, 8, 9, 10, 11, 12, 13, 14, 15, 16, 17, 18, 19, 20, 21, 22, 23, 24, 25, 26, 27, 28, 29, 30, 31, 32, 33, 34, 35, 36, 37, 38, 39, 40, 41, 42, 43, 44, 45, 46, 47, 48, 49, 50, 51, 52, 53, 54, 55, 56, 57, 58, 59, 60, 61, 62, 63, 64, 65, 66, 67, 68, 69, 70, 71, 72, 73, 74, 75, 76, 77, 78, 79, 80, 81, 82, 83, 84, 85, 86, 87, 88, 89, 90, 91, 92, 93, 94, 95, 96, 97, 98, 99, 100, 101, 102, 103, 104, 105, 106, 107, 108, 109, 110, 111, 112, 113, 114, 115, 116, 117, 118, 119, 120, 121, 122, 123, 124, 125, 126, 127, 128, 129, 130, 131, 132, 133, 134, 135, 136, 137, 138, 139, 140, 141, 142, 143, 144, 145, 146, 147, 148, 149, 150, 151, 152, 153, 154, 155, 156, 157, 158, 159, 160, 161, 162, 163, 164, 165, 166, 167, 168, 169, 170, 171, 172, 173, 174, 175, 176, 177, 178, 179, 180, 181, 182, 183, 184, 185, 186, 187, 188, 189, 190, 191, 192, 193, 194, 195, 196, 197, 198, 199, 200, 201, 202, 203, 204, 205, 206, 207, 208, 209, 210, 211, 212, 213, 214, 215, 216, 217, 218, 219, 220, 221, 222, 223, 224, 225, 226, 227, 228, 229, 230, 231, 232, 233, 234, 235, 236, 237, 238, 239, 240, 241, 242, 243, 244, 245, 246, 247, 248, 249, 250, 251, 252, 253, 254, 255, 256, 257, 258, 259, 260, 261, 262, 263, 264, 265, 266, 267, 268, 269, 270, 271, 272, 273, 274, 275, 276, 277, 278, 279, 280, 281, 282, 283, 284, 285, 286, 287, 288, 289, 290, 291, 292, 293, 294, 295, 296, 297, 298, 299, 300, 301, 302, 303, 304, 305, 306, 307, 308, 309, 310, 311, 312, 313, 314, 315, 316, 317, 318, 319, 320, 321, 322, 323, 324, 325, 326, 327, 328, 329, 330, 331, 332, 333, 334, 335, 336, 337, 338, 339, 340, 341, 342, 343, 344, 345, 346, 347, 348, 349, 350, 351, 352, 353, 354, 355, 356, 357, 358, 359, 360, 361, 362, 363, 364, 365, 366, 367, 368, 369, 370, 371, 372, 373, 374, 375, 376, 377, 378, 379, 380, 381, 382, 383, 384, 385, 386, 387, 388, 389, 390, 391, 392, 393, 394, 395, 396, 397, 398, 399, 400, 401, 402, 403, 404, 405, 406, 407, 408, 409, 410, 411, 412, 413, 414, 415, 416, 417, 418, 419, 420, 421, 422, 423, 424, 425, 426, 427, 428, 429, 430, 431, 432, 433, 434, 435, 436, 437, 438, 439, 440, 441, 442, 443, 444, 445, 446, 447, 448, 449, 450, 451, 452, 453, 454, 455, 456, 457, 458, 459, 460, 461, 462, 463, 464, 465, 466, 467, 468, 469, 470, 471, 472, 473, 474, 475, 476, 477, 478, 479, 480, 481, 482, 483, 484, 485, 486, 487, 488, 489, 490, 491, 492, 493, 494, 495, 496, 497, 498, 499, 500, 501, 502, 503, 504, 505, 506, 507, 508, 509, 510, 511, 512, 513, 514, 515, 516, 517, 518, 519, 520, 521, 522, 523, 524, 525, 526, 527, 528, 529, 530, 531, 532, 533, 534, 535, 536, 537, 538, 539, 540, 541, 542, 543, 544, 545, 546, 547, 548, 549, 550, 551, 552, 553, 554, 555, 556, 557, 558, 559, 560, 561, 562, 563, 564, 565, 566, 567, 568, 569, 570, 571, 572, 573, 574, 575, 576, 577, 578, 579, 580, 581, 582, 583, 584, 585, 586, 587, 588, 589, 590, 591, 592, 593, 594, 595, 596, 597, 598, 599, 600, 601, 602, 603, 604, 605, 606, 607, 608, 609, 610, 611, 612, 613, 614, 615, 616, 617, 618, 619, 620, 621, 622, 623, 624, 625, 626, 627, 628, 629, 630, 631, 632, 633, 634, 635, 636, 637, 638, 639, 640, 641, 642, 643, 644, 645, 646, 647, 648, 649, 650, 651, 652, 653, 654, 655, 656, 657, 658, 659, 660, 661, 662, 663, 664, 665, 666, 667, 668, 669, 670, 671, 672, 673, 674, 675, 676, 677, 678, 679, 680, 681, 682, 683, 684, 685, 686, 687, 688, 689, 690, 691, 692, 693, 694, 695, 696, 697, 698, 699, 700, 701, 702, 703, 704, 705, 706, 707, 708, 709, 710, 711, 712, 713, 714, 715, 716, 717, 718, 719, 720, 721, 722, 723, 724, 725, 726, 727, 728, 729, 730, 731, 732, 733, 734, 735, 736, 737, 738, 739, 740, 741, 742, 743, 744, 745, 746, 747, 748, 749, 750, 751, 752, 753, 754, 755, 756, 757, 758, 759, 760, 761, 762, 763, 764, 765, 766, 767, 768, 769, 770, 771, 772, 773, 774, 775, 776, 777, 778, 779, 780, 781, 782, 783, 784, 785, 786, 787, 788, 789, 790, 791, 792, 793, 794, 795, 796, 797, 798, 799, 800, 801, 802, 803],
      "AcquisitionTime": ["222308.170000", "222309.170000", "222310.170000", "222311.170000", "222312.170000", "222313.170000", "222314.170000", "222315.170000", "222316.170000", "222317.170000", "222318.170000", "222319.170000", "222320.170000", "222321.170000", "222322.170000", "222323.170000", "222324.170000", "222325.170000", "222326.170000", "222327.170000", "222328.170000", "222329.170000", "222330.170000", "222331.170000", "222332.170000", "222333.170000", "222334.170000", "222335.170000", "222336.170000", "222337.170000", "222338.170000", "222339.170000", "222340.170000", "222341.170000", "222342.170000", "222343.170000", "222344.170000", "222345.170000", "222346.170000", "222347.170000", "222348.170000", "222349.170000", "222350.170000", "222351.170000", "222352.170000", "222353.170000", "222354.170000", "222355.170000", "222356.170000", "222357.170000", "222358.170000", "222359.170000", "222400.170000", "222401.170000", "222402.170000", "222403.170000", "222404.170000", "222405.170000", "222406.170000", "222407.170000", "222408.170000", "222409.170000", "222410.170000", "222411.170000", "222412.170000", "222413.170000", "222414.170000", "222415.170000", "222416.170000", "222417.170000", "222418.170000", "222419.170000", "222420.170000", "222421.170000", "222422.170000", "222423.170000", "222424.170000", "222425.170000", "222426.170000", "222427.170000", "222428.170000", "222429.170000", "222430.170000", "222431.170000", "222432.170000", "222433.170000", "222434.170000", "222435.170000", "222436.170000", "222437.170000", "222438.170000", "222439.170000", "222440.170000", "222441.170000", "222442.170000", "222443.170000", "222444.170000", "222445.170000", "222446.170000", "222447.170000", "222448.170000", "222449.170000", "222450.170000", "222451.170000", "222452.170000", "222453.170000", "222454.170000", "222455.170000", "222456.170000", "222457.170000", "222458.170000", "222459.170000", "222500.170000", "222501.170000", "222502.170000", "222503.170000", "222504.170000", "222505.170000", "222506.170000", "222507.170000", "222508.170000", "222509.170000", "222510.170000", "222511.170000", "222512.170000", "222513.170000", "222514.170000", "222515.170000", "222516.170000", "222517.170000", "222518.170000", "222519.170000", "222520.170000", "222521.170000", "222522.170000", "222523.170000", "222524.170000", "222525.170000", "222526.170000", "222527.170000", "222528.170000", "222529.170000", "222530.170000", "222531.170000", "222532.170000", "222533.170000", "222534.170000", "222535.170000", "222536.170000", "222537.170000", "222538.170000", "222539.170000", "222540.170000", "222541.170000", "222542.170000", "222543.170000", "222544.170000", "222545.170000", "222546.170000", "222547.170000", "222548.170000", "222549.170000", "222550.170000", "222551.170000", "222552.170000", "222553.170000", "222554.170000", "222555.170000", "222556.170000", "222557.170000", "222558.170000", "222559.170000", "222600.170000", "222601.170000", "222602.170000", "222603.170000", "222604.170000", "222605.170000", "222606.170000", "222607.170000", "222608.170000", "222609.170000", "222610.170000", "222611.170000", "222612.170000", "222613.170000", "222614.170000", "222615.170000", "222616.170000", "222617.170000", "222618.170000", "222619.170000", "222620.170000", "222621.170000", "222622.170000", "222623.170000", "222624.170000", "222625.170000", "222626.170000", "222627.170000", "222628.170000", "222629.170000", "222630.170000", "222631.170000", "222632.170000", "222633.170000", "222634.170000", "222635.170000", "222636.170000", "222637.170000", "222638.170000", "222639.170000", "222640.170000", "222641.170000", "222642.170000", "222643.170000", "222644.170000", "222645.170000", "222646.170000", "222647.170000", "222648.170000", "222649.170000", "222650.170000", "222651.170000", "222652.170000", "222653.170000", "222654.170000", "222655.170000", "222656.170000", "222657.170000", "222658.170000", "222659.170000", "222700.170000", "222701.170000", "222702.170000", "222703.170000", "222704.170000", "222705.170000", "222706.170000", "222707.170000", "222708.170000", "222709.170000", "222710.170000", "222711.170000", "222712.170000", "222713.170000", "222714.170000", "222715.170000", "222716.170000", "222717.170000", "222718.170000", "222719.170000", "222720.170000", "222721.170000", "222722.170000", "222723.170000", "222724.170000", "222725.170000", "222726.170000", "222727.170000", "222728.170000", "222729.170000", "222730.170000", "222731.170000", "222732.170000", "222733.170000", "222734.170000", "222735.170000", "222736.170000", "222737.170000", "222738.170000", "222739.170000", "222740.170000", "222741.170000", "222742.170000", "222743.170000", "222744.170000", "222745.170000", "222746.170000", "222747.170000", "222748.170000", "222749.170000", "222750.170000", "222751.170000", "222752.170000", "222753.170000", "222754.170000", "222755.170000", "222756.170000", "222757.170000", "222758.170000", "222759.170000", "222800.170000", "222801.170000", "222802.170000", "222803.170000", "222804.170000", "222805.170000", "222806.170000", "222807.170000", "222808.170000", "222809.170000", "222810.170000", "222811.170000", "222812.170000", "222813.170000", "222814.170000", "222815.170000", "222816.170000", "222817.170000", "222818.170000", "222819.170000", "222820.170000", "222821.170000", "222822.170000", "222823.170000", "222824.170000", "222825.170000", "222826.170000", "222827.170000", "222828.170000", "222829.170000", "222830.170000", "222831.170000", "222832.170000", "222833.170000", "222834.170000", "222835.170000", "222836.170000", "222837.170000", "222838.170000", "222839.170000", "222840.170000", "222841.170000", "222842.170000", "222843.170000", "222844.170000", "222845.170000", "222846.170000", "222847.170000", "222848.170000", "222849.170000", "222850.170000", "222851.170000", "222852.170000", "222853.170000", "222854.170000", "222855.170000", "222856.170000", "222857.170000", "222858.170000", "222859.170000", "222900.170000", "222901.170000", "222902.170000", "222903.170000", "222904.170000", "222905.170000", "222906.170000", "222907.170000", "222908.170000", "222909.170000", "222910.170000", "222911.170000", "222912.170000", "222913.170000", "222914.170000", "222915.170000", "222916.170000", "222917.170000", "222918.170000", "222919.170000", "222920.170000", "222921.170000", "222922.170000", "222923.170000", "222924.170000", "222925.170000", "222926.170000", "222927.170000", "222928.170000", "222929.170000", "222930.170000", "222931.170000", "222932.170000", "222933.170000", "222934.170000", "222935.170000", "222936.170000", "222937.170000", "222938.170000", "222939.170000", "222940.170000", "222941.170000", "222942.170000", "222943.170000", "222944.170000", "222945.170000", "222946.170000", "222947.170000", "222948.170000", "222949.170000", "222950.170000", "222951.170000", "222952.170000", "222953.170000", "222954.170000", "222955.170000", "222956.170000", "222957.170000", "222958.170000", "222959.170000", "223000.170000", "223001.170000", "223002.170000", "223003.170000", "223004.170000", "223005.170000", "223006.170000", "223007.170000", "223008.170000", "223009.170000", "223010.170000", "223011.170000", "223012.170000", "223013.170000", "223014.170000", "223015.170000", "223016.170000", "223017.170000", "223018.170000", "223019.170000", "223020.170000", "223021.170000", "223022.170000", "223023.170000", "223024.170000", "223025.170000", "223026.170000", "223027.170000", "223028.170000", "223029.170000", "223030.170000", "223031.170000", "223032.170000", "223033.170000", "223034.170000", "223035.170000", "223036.170000", "223037.170000", "223038.170000", "223039.170000", "223040.170000", "223041.170000", "223042.170000", "223043.170000", "223044.170000", "223045.170000", "223046.170000", "223047.170000", "223048.170000", "223049.170000", "223050.170000", "223051.170000", "223052.170000", "223053.170000", "223054.170000", "223055.170000", "223056.170000", "223057.170000", "223058.170000", "223059.170000", "223100.170000", "223101.170000", "223102.170000", "223103.170000", "223104.170000", "223105.170000", "223106.170000", "223107.170000", "223108.170000", "223109.170000", "223110.170000", "223111.170000", "223112.170000", "223113.170000", "223114.170000", "223115.170000", "223116.170000", "223117.170000", "223118.170000", "223119.170000", "223120.170000", "223121.170000", "223122.170000", "223123.170000", "223124.170000", "223125.170000", "223126.170000", "223127.170000", "223128.170000", "223129.170000", "223130.170000", "223131.170000", "223132.170000", "223133.170000", "223134.170000", "223135.170000", "223136.170000", "223137.170000", "223138.170000", "223139.170000", "223140.170000", "223141.170000", "223142.170000", "223143.170000", "223144.170000", "223145.170000", "223146.170000", "223147.170000", "223148.170000", "223149.170000", "223150.170000", "223151.170000", "223152.170000", "223153.170000", "223154.170000", "223155.170000", "223156.170000", "223157.170000", "223158.170000", "223159.170000", "223200.170000", "223201.170000", "223202.170000", "223203.170000", "223204.170000", "223205.170000", "223206.170000", "223207.170000", "223208.170000", "223209.170000", "223210.170000", "223211.170000", "223212.170000", "223213.170000", "223214.170000", "223215.170000", "223216.170000", "223217.170000", "223218.170000", "223219.170000", "223220.170000", "223221.170000", "223222.170000", "223223.170000", "223224.170000", "223225.170000", "223226.170000", "223227.170000", "223228.170000", "223229.170000", "223230.170000", "223231.170000", "223232.170000", "223233.170000", "223234.170000", "223235.170000", "223236.170000", "223237.170000", "223238.170000", "223239.170000", "223240.170000", "223241.170000", "223242.170000", "223243.170000", "223244.170000", "223245.170000", "223246.170000", "223247.170000", "223248.170000", "223249.170000", "223250.170000", "223251.170000", "223252.170000", "223253.170000", "223254.170000", "223255.170000", "223256.170000", "223257.170000", "223258.170000", "223259.170000", "223300.170000", "223301.170000", "223302.170000", "223303.170000", "223304.170000", "223305.170000", "223306.170000", "223307.170000", "223308.170000", "223309.170000", "223310.170000", "223311.170000", "223312.170000", "223313.170000", "223314.170000", "223315.170000", "223316.170000", "223317.170000", "223318.170000", "223319.170000", "223320.170000", "223321.170000", "223322.170000", "223323.170000", "223324.170000", "223325.170000", "223326.170000", "223327.170000", "223328.170000", "223329.170000", "223330.170000", "223331.170000", "223332.170000", "223333.170000", "223334.170000", "223335.170000", "223336.170000", "223337.170000", "223338.170000", "223339.170000", "223340.170000", "223341.170000", "223342.170000", "223343.170000", "223344.170000", "223345.170000", "223346.170000", "223347.170000", "223348.170000", "223349.170000", "223350.170000", "223351.170000", "223352.170000", "223353.170000", "223354.170000", "223355.170000", "223356.170000", "223357.170000", "223358.170000", "223359.170000", "223400.170000", "223401.170000", "223402.170000", "223403.170000", "223404.170000", "223405.170000", "223406.170000", "223407.170000", "223408.170000", "223409.170000", "223410.170000", "223411.170000", "223412.170000", "223413.170000", "223414.170000", "223415.170000", "223416.170000", "223417.170000", "223418.170000", "223419.170000", "223420.170000", "223421.170000", "223422.170000", "223423.170000", "223424.170000", "223425.170000", "223426.170000", "223427.170000", "223428.170000", "223429.170000", "223430.170000", "223431.170000", "223432.170000", "223433.170000", "223434.170000", "223435.170000", "223436.170000", "223437.170000", "223438.170000", "223439.170000", "223440.170000", "223441.170000", "223442.170000", "223443.170000", "223444.170000", "223445.170000", "223446.170000", "223447.170000", "223448.170000", "223449.170000", "223450.170000", "223451.170000", "223452.170000", "223453.170000", "223454.170000", "223455.170000", "223456.170000", "223457.170000", "223458.170000", "223459.170000", "223500.170000", "223501.170000", "223502.170000", "223503.170000", "223504.170000", "223505.170000", "223506.170000", "223507.170000", "223508.170000", "223509.170000", "223510.170000", "223511.170000", "223512.170000", "223513.170000", "223514.170000", "223515.170000", "223516.170000", "223517.170000", "223518.170000", "223519.170000", "223520.170000", "223521.170000", "223522.170000", "223523.170000", "223524.170000", "223525.170000", "223526.170000", "223527.170000", "223528.170000", "223529.170000", "223530.170000", "223531.170000", "223532.170000", "223533.170000", "223534.170000", "223535.170000", "223536.170000", "223537.170000", "223538.170000", "223539.170000", "223540.170000", "223541.170000", "223542.170000", "223543.170000", "223544.170000", "223545.170000", "223546.170000", "223547.170000", "223548.170000", "223549.170000", "223550.170000", "223551.170000", "223552.170000", "223553.170000", "223554.170000", "223555.170000", "223556.170000", "223557.170000", "223558.170000", "223559.170000", "223600.170000", "223601.170000", "223602.170000", "223603.170000", "223604.170000", "223605.170000", "223606.170000", "223607.170000", "223608.170000", "223609.170000", "223610.170000", "223611.170000", "223612.170000", "223613.170000", "223614.170000", "223615.170000", "223616.170000", "223617.170000", "223618.170000", "223619.170000", "223620.170000", "223621.170000", "223622.170000", "223623.170000", "223624.170000", "223625.170000", "223626.170000", "223627.170000", "223628.170000", "223629.170000", "223630.170000"],
