{
  "AcquisitionMatrixPE": 96,
  "AcquisitionNumber": 1,
  "AcquisitionTime": "21:54:9.067500",
  "BandwidthPerPixelPhaseEncode": 18.939,
  "BaseResolution": 96,
  "BodyPartExamined": "BRAIN",
  "ConsistencyInfo": "N4_VE11C_LATEST_20160120",
  "ConversionSoftware": "dcm2niix",
  "ConversionSoftwareVersion": "v1.0.20190902",
  "DerivedVendorReportedEchoSpacing": 0.000550011,
  "DeviceSerialNumber": "66112",
  "DwellTime": 2.2e-06,
  "EchoTime": 0.033,
  "EchoTrainLength": 96,
  "EffectiveEchoSpacing": 0.000550011,
  "FlipAngle": 59,
  "ImageOrientationPatientDICOM": [0.998838, -0.034965, -0.0331824, 0.0324368, 0.996739, -0.0738922],
  "ImageType": [
    "ORIGINAL",
    "PRIMARY",
    "FMRI",
    "NONE",
    "ND",
    "NORM",
    "MOSAIC"
],
  "ImagingFrequency": 123.252,
  "InPlanePhaseEncodingDirectionDICOM": "COL",
  "InstitutionAddress": "Maynard_3_Hanover_NH_US_03755",
  "InstitutionName": "Dartmouth_College_-_PBS",
  "InstitutionalDepartmentName": "Department",
  "MRAcquisitionType": "2D",
  "MagneticFieldStrength": 3,
  "Manufacturer": "Siemens",
  "ManufacturersModelName": "Prisma",
  "Modality": "MR",
  "MultibandAccelerationFactor": 4,
  "PartialFourier": 1,
  "PatientPosition": "HFS",
  "PercentPhaseFOV": 100,
  "PhaseEncodingDirection": "j-",
  "PhaseEncodingSteps": 96,
  "PhaseResolution": 1,
  "PixelBandwidth": 2365,
  "ProcedureStepDescription": "Gobbini_Matteo_1037_budapest",
  "ProtocolName": "func_run-02_task-movie",
  "PulseSequenceDetails": "%SiemensSeq%_ep2d_bold",
  "ReceiveCoilActiveElements": "HEA;HEP",
  "ReceiveCoilName": "Head_32",
  "ReconMatrixPE": 96,
  "RefLinesPE": 12,
  "RepetitionTime": 1,
  "SAR": 0.0583967,
  "ScanOptions": "FS",
  "ScanningSequence": "EP",
  "SequenceName": "_epfid2d1_96",
  "SequenceVariant": "SK",
  "SeriesDescription": "func_run-02_task-movie",
  "SeriesNumber": 15,
  "ShimSetting": [4135, -7681, -7312, 663, -87, 35, 51, 82],
  "SliceThickness": 2.5,
  "SliceTiming": [0.735, 0, 0.49, 0.08, 0.57, 0.1625, 0.6525, 0.325, 0.815, 0.4075, 0.8975, 0.245, 0.735, 0, 0.49, 0.08, 0.57, 0.1625, 0.6525, 0.325, 0.815, 0.4075, 0.8975, 0.245, 0.735, 0, 0.49, 0.08, 0.57, 0.1625, 0.6525, 0.325, 0.815, 0.4075, 0.8975, 0.245, 0.735, 0, 0.49, 0.08, 0.57, 0.1625, 0.6525, 0.325, 0.815, 0.4075, 0.8975, 0.245],
  "SoftwareVersions": "syngo_MR_E11",
  "SpacingBetweenSlices": 2.5,
  "StationName": "AWP66112",
  "TaskName": "movie",
  "TotalReadoutTime": 0.0522511,
  "TxRefAmp": 274.053,
  "dcmmeta_affine": [
    [-2.497093677520752, 0.08109190315008163, -0.08914455771446228, 118.0248794555664],
    [0.0874125212430954, 2.4918465614318848, -0.18182486295700073, -108.87200927734375],
    [-0.08295601606369019, 0.1847304254770279, 2.4917850494384766, -76.52983856201172],
    [0.0, 0.0, 0.0, 1.0]
],
  "dcmmeta_reorient_transform": [
    [0.0, -1.0, 0.0, 95.0],
    [1.0, 0.0, 0.0, 0.0],
    [0.0, 0.0, 1.0, 0.0],
    [0.0, 0.0, 0.0, 1.0]
],
  "dcmmeta_shape": [96, 96, 48, 498],
  "dcmmeta_slice_dim": 2,
  "dcmmeta_version": 0.6,
  "global": {
    "const": {
      "AccessionNumber": "A001449",
      "AcquisitionMatrix": [96, 0, 0, 96],
      "AngioFlag": "N",
      "BitsAllocated": 16,
      "BitsStored": 12,
      "BodyPartExamined": "BRAIN",
      "Columns": 672,
      "EchoNumbers": 1,
      "EchoTime": 33.0,
      "EchoTrainLength": 96,
      "FlipAngle": 59.0,
      "HighBit": 11,
      "ImageOrientationPatient": [0.99883751237982, -0.0349650091163, -0.033182404982, 0.03243676098569, 0.99673858325983, -0.0738921726434],
      "ImagePositionPatient": [-868.24608452182, -820.3303788339, 18.113246096391],
      "ImageType": [
        "ORIGINAL",
        "PRIMARY",
        "FMRI",
        "NONE",
        "ND",
        "NORM",
        "MOSAIC"
],
      "ImagedNucleus": "1H",
      "ImagingFrequency": 123.252279,
      "InPlanePhaseEncodingDirection": "COL",
      "MRAcquisitionType": "2D",
      "MagneticFieldStrength": 3.0,
      "Manufacturer": "SIEMENS",
      "ManufacturerModelName": "Prisma",
      "Modality": "MR",
      "NumberOfAverages": 1.0,
      "NumberOfPhaseEncodingSteps": 96,
      "PercentPhaseFieldOfView": 100.0,
      "PercentSampling": 100.0,
      "PerformedProcedureStepStartTime": "210128.705000",
      "PhotometricInterpretation": "MONOCHROME2",
      "PixelBandwidth": 2365.0,
      "PixelRepresentation": 0,
      "PixelSpacing": [2.5, 2.5],
      "ProtocolName": "func_run-02_task-movie",
      "RepetitionTime": 1000.0,
      "Rows": 672,
      "SAR": 0.0583966728024,
      "SamplesPerPixel": 1,
      "ScanOptions": "FS",
      "ScanningSequence": "EP",
      "SequenceName": "*epfid2d1_96",
      "SequenceVariant": "SK",
      "SeriesDescription": "func_run-02_task-movie",
      "SeriesNumber": 15,
      "SeriesTime": "215410.279000",
      "SliceLocation": -72.568621897515,
      "SliceThickness": 2.5,
      "SmallestImagePixelValue": 0,
      "SoftwareVersions": "syngo MR E11",
      "SpacingBetweenSlices": 2.4999999929872,
      "SpecificCharacterSet": "ISO_IR 100",
      "StudyID": "1",
      "StudyTime": "210128.541000",
      "TransmitCoilName": "Body",
      "VariableFlipAngleFlag": "N",
      "WindowCenterWidthExplanation": "Algo1",
      "dBdt": 0.0},
    "slices": {}
  },
  "time": {
    "samples": {
      "AcquisitionNumber": [1, 2, 3, 4, 5, 6, 7, 8, 9, 10, 11, 12, 13, 14, 15, 16, 17, 18, 19, 20, 21, 22, 23, 24, 25, 26, 27, 28, 29, 30, 31, 32, 33, 34, 35, 36, 37, 38, 39, 40, 41, 42, 43, 44, 45, 46, 47, 48, 49, 50, 51, 52, 53, 54, 55, 56, 57, 58, 59, 60, 61, 62, 63, 64, 65, 66, 67, 68, 69, 70, 71, 72, 73, 74, 75, 76, 77, 78, 79, 80, 81, 82, 83, 84, 85, 86, 87, 88, 89, 90, 91, 92, 93, 94, 95, 96, 97, 98, 99, 100, 101, 102, 103, 104, 105, 106, 107, 108, 109, 110, 111, 112, 113, 114, 115, 116, 117, 118, 119, 120, 121, 122, 123, 124, 125, 126, 127, 128, 129, 130, 131, 132, 133, 134, 135, 136, 137, 138, 139, 140, 141, 142, 143, 144, 145, 146, 147, 148, 149, 150, 151, 152, 153, 154, 155, 156, 157, 158, 159, 160, 161, 162, 163, 164, 165, 166, 167, 168, 169, 170, 171, 172, 173, 174, 175, 176, 177, 178, 179, 180, 181, 182, 183, 184, 185, 186, 187, 188, 189, 190, 191, 192, 193, 194, 195, 196, 197, 198, 199, 200, 201, 202, 203, 204, 205, 206, 207, 208, 209, 210, 211, 212, 213, 214, 215, 216, 217, 218, 219, 220, 221, 222, 223, 224, 225, 226, 227, 228, 229, 230, 231, 232, 233, 234, 235, 236, 237, 238, 239, 240, 241, 242, 243, 244, 245, 246, 247, 248, 249, 250, 251, 252, 253, 254, 255, 256, 257, 258, 259, 260, 261, 262, 263, 264, 265, 266, 267, 268, 269, 270, 271, 272, 273, 274, 275, 276, 277, 278, 279, 280, 281, 282, 283, 284, 285, 286, 287, 288, 289, 290, 291, 292, 293, 294, 295, 296, 297, 298, 299, 300, 301, 302, 303, 304, 305, 306, 307, 308, 309, 310, 311, 312, 313, 314, 315, 316, 317, 318, 319, 320, 321, 322, 323, 324, 325, 326, 327, 328, 329, 330, 331, 332, 333, 334, 335, 336, 337, 338, 339, 340, 341, 342, 343, 344, 345, 346, 347, 348, 349, 350, 351, 352, 353, 354, 355, 356, 357, 358, 359, 360, 361, 362, 363, 364, 365, 366, 367, 368, 369, 370, 371, 372, 373, 374, 375, 376, 377, 378, 379, 380, 381, 382, 383, 384, 385, 386, 387, 388, 389, 390, 391, 392, 393, 394, 395, 396, 397, 398, 399, 400, 401, 402, 403, 404, 405, 406, 407, 408, 409, 410, 411, 412, 413, 414, 415, 416, 417, 418, 419, 420, 421, 422, 423, 424, 425, 426, 427, 428, 429, 430, 431, 432, 433, 434, 435, 436, 437, 438, 439, 440, 441, 442, 443, 444, 445, 446, 447, 448, 449, 450, 451, 452, 453, 454, 455, 456, 457, 458, 459, 460, 461, 462, 463, 464, 465, 466, 467, 468, 469, 470, 471, 472, 473, 474, 475, 476, 477, 478, 479, 480, 481, 482, 483, 484, 485, 486, 487, 488, 489, 490, 491, 492, 493, 494, 495, 496, 497, 498],
      "AcquisitionTime": ["215409.067500", "215410.067500", "215411.067500", "215412.067500", "215413.067500", "215414.067500", "215415.067500", "215416.067500", "215417.067500", "215418.067500", "215419.067500", "215420.067500", "215421.067500", "215422.067500", "215423.067500", "215424.067500", "215425.067500", "215426.067500", "215427.067500", "215428.067500", "215429.067500", "215430.067500", "215431.067500", "215432.067500", "215433.067500", "215434.067500", "215435.067500", "215436.067500", "215437.067500", "215438.067500", "215439.067500", "215440.067500", "215441.067500", "215442.067500", "215443.067500", "215444.067500", "215445.067500", "215446.067500", "215447.067500", "215448.067500", "215449.067500", "215450.067500", "215451.067500", "215452.067500", "215453.067500", "215454.067500", "215455.067500", "215456.067500", "215457.067500", "215458.067500", "215459.067500", "215500.067500", "215501.067500", "215502.067500", "215503.067500", "215504.067500", "215505.067500", "215506.067500", "215507.067500", "215508.067500", "215509.067500", "215510.067500", "215511.067500", "215512.067500", "215513.067500", "215514.067500", "215515.067500", "215516.067500", "215517.067500", "215518.067500", "215519.067500", "215520.067500", "215521.067500", "215522.067500", "215523.067500", "215524.067500", "215525.067500", "215526.067500", "215527.067500", "215528.067500", "215529.067500", "215530.067500", "215531.067500", "215532.067500", "215533.067500", "215534.067500", "215535.067500", "215536.067500", "215537.067500", "215538.067500", "215539.067500", "215540.067500", "215541.067500", "215542.067500", "215543.067500", "215544.067500", "215545.067500", "215546.067500", "215547.067500", "215548.067500", "215549.067500", "215550.067500", "215551.067500", "215552.067500", "215553.067500", "215554.067500", "215555.067500", "215556.067500", "215557.067500", "215558.067500", "215559.067500", "215600.067500", "215601.067500", "215602.067500", "215603.067500", "215604.067500", "215605.067500", "215606.067500", "215607.067500", "215608.067500", "215609.067500", "215610.067500", "215611.067500", "215612.067500", "215613.067500", "215614.067500", "215615.067500", "215616.067500", "215617.067500", "215618.067500", "215619.067500", "215620.067500", "215621.067500", "215622.067500", "215623.067500", "215624.067500", "215625.067500", "215626.067500", "215627.067500", "215628.067500", "215629.067500", "215630.067500", "215631.067500", "215632.067500", "215633.067500", "215634.067500", "215635.067500", "215636.067500", "215637.067500", "215638.067500", "215639.067500", "215640.067500", "215641.067500", "215642.067500", "215643.067500", "215644.067500", "215645.067500", "215646.067500", "215647.067500", "215648.067500", "215649.067500", "215650.067500", "215651.067500", "215652.067500", "215653.067500", "215654.067500", "215655.067500", "215656.067500", "215657.067500", "215658.067500", "215659.067500", "215700.067500", "215701.067500", "215702.067500", "215703.067500", "215704.067500", "215705.067500", "215706.067500", "215707.067500", "215708.067500", "215709.067500", "215710.067500", "215711.067500", "215712.067500", "215713.067500", "215714.067500", "215715.067500", "215716.067500", "215717.067500", "215718.067500", "215719.067500", "215720.067500", "215721.067500", "215722.067500", "215723.067500", "215724.067500", "215725.067500", "215726.067500", "215727.067500", "215728.067500", "215729.067500", "215730.067500", "215731.067500", "215732.067500", "215733.067500", "215734.067500", "215735.067500", "215736.067500", "215737.067500", "215738.067500", "215739.067500", "215740.067500", "215741.067500", "215742.067500", "215743.067500", "215744.067500", "215745.067500", "215746.067500", "215747.067500", "215748.067500", "215749.067500", "215750.067500", "215751.067500", "215752.067500", "215753.067500", "215754.067500", "215755.067500", "215756.067500", "215757.067500", "215758.067500", "215759.067500", "215800.067500", "215801.067500", "215802.067500", "215803.067500", "215804.067500", "215805.067500", "215806.067500", "215807.067500", "215808.067500", "215809.067500", "215810.067500", "215811.067500", "215812.067500", "215813.067500", "215814.067500", "215815.067500", "215816.067500", "215817.067500", "215818.067500", "215819.067500", "215820.067500", "215821.067500", "215822.067500", "215823.067500", "215824.067500", "215825.067500", "215826.067500", "215827.067500", "215828.067500", "215829.067500", "215830.067500", "215831.067500", "215832.067500", "215833.067500", "215834.067500", "215835.067500", "215836.067500", "215837.067500", "215838.067500", "215839.067500", "215840.067500", "215841.067500", "215842.067500", "215843.067500", "215844.067500", "215845.067500", "215846.067500", "215847.067500", "215848.067500", "215849.067500", "215850.067500", "215851.067500", "215852.067500", "215853.067500", "215854.067500", "215855.067500", "215856.067500", "215857.067500", "215858.067500", "215859.067500", "215900.067500", "215901.067500", "215902.067500", "215903.067500", "215904.067500", "215905.067500", "215906.067500", "215907.067500", "215908.067500", "215909.067500", "215910.067500", "215911.067500", "215912.067500", "215913.067500", "215914.067500", "215915.067500", "215916.067500", "215917.067500", "215918.067500", "215919.067500", "215920.067500", "215921.067500", "215922.067500", "215923.067500", "215924.067500", "215925.067500", "215926.067500", "215927.067500", "215928.067500", "215929.067500", "215930.067500", "215931.067500", "215932.067500", "215933.067500", "215934.067500", "215935.067500", "215936.067500", "215937.067500", "215938.067500", "215939.067500", "215940.067500", "215941.067500", "215942.067500", "215943.067500", "215944.067500", "215945.067500", "215946.067500", "215947.067500", "215948.067500", "215949.067500", "215950.067500", "215951.067500", "215952.067500", "215953.067500", "215954.067500", "215955.067500", "215956.067500", "215957.067500", "215958.067500", "215959.067500", "220000.067500", "220001.067500", "220002.067500", "220003.067500", "220004.067500", "220005.067500", "220006.067500", "220007.067500", "220008.067500", "220009.067500", "220010.067500", "220011.067500", "220012.067500", "220013.067500", "220014.067500", "220015.067500", "220016.067500", "220017.067500", "220018.067500", "220019.067500", "220020.067500", "220021.067500", "220022.067500", "220023.067500", "220024.067500", "220025.067500", "220026.067500", "220027.067500", "220028.067500", "220029.067500", "220030.067500", "220031.067500", "220032.067500", "220033.067500", "220034.067500", "220035.067500", "220036.067500", "220037.067500", "220038.067500", "220039.067500", "220040.067500", "220041.067500", "220042.067500", "220043.067500", "220044.067500", "220045.067500", "220046.067500", "220047.067500", "220048.067500", "220049.067500", "220050.067500", "220051.067500", "220052.067500", "220053.067500", "220054.067500", "220055.067500", "220056.067500", "220057.067500", "220058.067500", "220059.067500", "220100.067500", "220101.067500", "220102.067500", "220103.067500", "220104.067500", "220105.067500", "220106.067500", "220107.067500", "220108.067500", "220109.067500", "220110.067500", "220111.067500", "220112.067500", "220113.067500", "220114.067500", "220115.067500", "220116.067500", "220117.067500", "220118.067500", "220119.067500", "220120.067500", "220121.067500", "220122.067500", "220123.067500", "220124.067500", "220125.067500", "220126.067500", "220127.067500", "220128.067500", "220129.067500", "220130.067500", "220131.067500", "220132.067500", "220133.067500", "220134.067500", "220135.067500", "220136.067500", "220137.067500", "220138.067500", "220139.067500", "220140.067500", "220141.067500", "220142.067500", "220143.067500", "220144.067500", "220145.067500", "220146.067500", "220147.067500", "220148.067500", "220149.067500", "220150.067500", "220151.067500", "220152.067500", "220153.067500", "220154.067500", "220155.067500", "220156.067500", "220157.067500", "220158.067500", "220159.067500", "220200.067500", "220201.067500", "220202.067500", "220203.067500", "220204.067500", "220205.067500", "220206.067500", "220207.067500", "220208.067500", "220209.067500", "220210.067500", "220211.067500", "220212.067500", "220213.067500", "220214.067500", "220215.067500", "220216.067500", "220217.067500", "220218.067500", "220219.067500", "220220.067500", "220221.067500", "220222.067500", "220223.067500", "220224.067500", "220225.067500", "220226.067500"],
      "ContentTime": ["215410.283000", "215411.164000", "215412.138000", "215413.148000", "215414.153000", "215415.128000", "215416.147000", "215417.163000", "215418.117000", "215419.159000", "215420.152000", "215421.140000", "215422.131000", "215423.136000", "215424.132000", "215425.140000", "215426.133000", "215427.176000", "215428.138000", "215429.119000", "215430.156000", "215431.132000", "215432.161000", "215433.154000", "215434.138000", "215435.147000", "215436.133000", "215437.115000", "215438.154000", "215439.169000", "215440.159000", "215441.146000", "215442.126000", "215443.151000", "215444.184000", "215445.144000", "215446.168000", "215447.154000", "215448.158000", "215449.135000", "215450.163000", "215451.208000", "215452.160000", "215453.162000", "215454.161000", "215455.167000", "215456.167000", "215457.163000", "215458.137000", "215459.140000", "215500.123000", "215501.124000", "215502.138000", "215503.140000", "215504.159000", "215505.233000", "215506.125000", "215507.130000", "215508.133000", "215509.151000", "215510.166000", "215511.171000", "215512.137000", "215513.129000", "215514.142000", "215515.149000", "215516.121000", "215517.176000", "215518.161000", "215519.175000", "215520.152000", "215521.138000", "215522.149000", "215523.137000", "215524.144000", "215525.129000", "215526.141000", "215527.119000", "215528.144000", "215529.157000", "215530.167000", "215531.165000", "215532.145000", "215533.147000", "215534.158000", "215535.165000", "215536.146000", "215537.188000", "215538.142000", "215539.141000", "215540.185000", "215541.164000", "215542.168000", "215543.141000", "215544.148000", "215545.204000", "215546.133000", "215547.183000", "215548.149000", "215549.143000", "215550.161000", "215551.131000", "215552.154000", "215553.145000", "215554.181000", "215555.134000", "215556.167000", "215557.115000", "215558.143000", "215559.138000", "215600.144000", "215601.140000", "215602.160000", "215603.156000", "215604.150000", "215605.139000", "215606.190000", "215607.150000", "215608.146000", "215609.131000", "215610.161000", "215611.164000", "215612.163000", "215613.155000", "215614.166000", "215615.163000", "215616.197000", "215617.156000", "215618.159000", "215619.178000", "215620.123000", "215621.153000", "215622.131000", "215623.166000", "215624.143000", "215625.149000", "215626.165000", "215627.146000", "215628.149000", "215629.153000", "215630.152000", "215631.139000", "215632.179000", "215633.147000", "215634.164000", "215635.144000", "215636.164000", "215637.149000", "215638.140000", "215639.145000", "215640.148000", "215641.187000", "215642.162000", "215643.112000", "215644.154000", "215645.153000", "215646.157000", "215647.120000", "215648.137000", "215649.181000", "215650.157000", "215651.217000", "215652.193000", "215653.138000", "215654.155000", "215655.162000", "215656.134000", "215657.162000", "215658.146000", "215659.151000", "215700.140000", "215701.136000", "215702.154000", "215703.221000", "215704.169000", "215705.148000", "215706.183000", "215707.172000", "215708.224000", "215709.162000", "215710.154000", "215711.165000", "215712.122000", "215713.139000", "215714.156000", "215715.121000", "215716.184000", "215717.145000", "215718.207000", "215719.148000", "215720.165000", "215721.158000", "215722.153000", "215723.161000", "215724.173000", "215725.155000", "215726.148000", "215727.147000", "215728.129000", "215729.142000", "215730.137000", "215731.138000", "215732.142000", "215733.218000", "215734.175000", "215735.159000", "215736.144000", "215737.141000", "215738.157000", "215739.144000", "215740.153000", "215741.142000", "215742.150000", "215743.153000", "215744.162000", "215745.175000", "215746.145000", "215747.115000", "215748.132000", "215749.147000", "215750.159000", "215751.130000", "215752.174000", "215753.151000", "215754.152000", "215755.153000", "215756.157000", "215757.141000", "215758.125000", "215759.168000", "215800.130000", "215801.134000", "215802.127000", "215803.161000", "215804.157000", "215805.191000", "215806.134000", "215807.154000", "215808.156000", "215809.145000", "215810.149000", "215811.207000", "215812.132000", "215813.174000", "215814.191000", "215815.178000", "215816.192000", "215817.146000", "215818.162000", "215819.169000", "215820.132000", "215821.140000", "215822.157000", "215823.152000", "215824.140000", "215825.157000", "215826.182000", "215827.129000", "215828.156000", "215829.166000", "215830.162000", "215831.152000", "215832.143000", "215833.128000", "215834.137000", "215835.155000", "215836.162000", "215837.128000", "215838.141000", "215839.135000", "215840.193000", "215841.132000", "215842.169000", "215843.144000", "215844.125000", "215845.148000", "215846.160000", "215847.166000", "215848.158000", "215849.186000", "215850.155000", "215851.136000", "215852.145000", "215853.163000", "215854.145000", "215855.149000", "215856.148000", "215857.164000", "215858.192000", "215859.144000", "215900.146000", "215901.154000", "215902.132000", "215903.157000", "215904.141000", "215905.165000", "215906.179000", "215907.149000", "215908.158000", "215909.161000", "215910.133000", "215911.167000", "215912.123000", "215913.130000", "215914.140000", "215915.150000", "215916.150000", "215917.147000", "215918.147000", "215919.165000", "215920.136000", "215921.129000", "215922.135000", "215923.130000", "215924.142000", "215925.125000", "215926.134000", "215927.147000", "215928.158000", "215929.148000", "215930.145000", "215931.158000", "215932.151000", "215933.174000", "215934.142000", "215935.147000", "215936.141000", "215937.183000", "215938.170000", "215939.137000", "215940.187000", "215941.153000", "215942.150000", "215943.187000", "215944.148000", "215945.159000", "215946.154000", "215947.123000", "215948.198000", "215949.157000", "215950.246000", "215951.142000", "215952.170000", "215953.174000", "215954.145000", "215955.143000", "215956.164000", "215957.134000", "215958.174000", "215959.168000", "220000.172000", "220001.158000", "220002.197000", "220003.168000", "220004.157000", "220005.160000", "220006.156000", "220007.157000", "220008.150000", "220009.149000", "220010.149000", "220011.167000", "220012.142000", "220013.164000", "220014.168000", "220015.096000", "220016.153000", "220017.142000", "220018.121000", "220019.148000", "220020.162000", "220021.191000", "220022.166000", "220023.193000", "220024.165000", "220025.178000", "220026.155000", "220027.185000", "220028.150000", "220029.185000", "220030.194000", "220031.182000", "220032.162000", "220033.154000", "220034.168000", "220035.161000", "220036.143000", "220037.182000", "220038.164000", "220039.169000", "220040.134000", "220041.135000", "220042.132000", "220043.208000", "220044.131000", "220045.163000", "220046.169000", "220047.126000", "220048.145000", "220049.145000", "220050.149000", "220051.138000", "220052.135000", "220053.146000", "220054.138000", "220055.159000", "220056.128000", "220057.144000", "220058.124000", "220059.132000", "220100.142000", "220101.160000", "220102.139000", "220103.132000", "220104.130000", "220105.119000", "220106.137000", "220107.144000", "220108.146000", "220109.180000", "220110.179000", "220111.144000", "220112.156000", "220113.160000", "220114.154000", "220115.173000", "220116.156000", "220117.145000", "220118.155000", "220119.162000", "220120.153000", "220121.149000", "220122.152000", "220123.162000", "220124.200000", "220125.158000", "220126.152000", "220127.161000", "220128.140000", "220129.163000", "220130.154000", "220131.138000", "220132.192000", "220133.118000", "220134.161000", "220135.153000", "220136.145000", "220137.139000", "220138.181000", "220139.176000", "220140.152000", "220141.171000", "220142.192000", "220143.152000", "220144.146000", "220145.159000", "220146.142000", "220147.154000", "220148.157000", "220149.153000", "220150.142000", "220151.172000", "220152.125000", "220153.142000", "220154.132000", "220155.142000", "220156.127000", "220157.161000", "220158.132000", "220159.165000", "220200.141000", "220201.127000", "220202.153000", "220203.136000", "220204.128000", "220205.180000", "220206.135000", "220207.131000", "220208.152000", "220209.143000", "220210.146000", "220211.169000", "220212.156000", "220213.172000", "220214.139000", "220215.137000", "220216.142000", "220217.140000", "220218.133000", "220219.133000", "220220.161000", "220221.162000", "220222.149000", "220223.167000", "220224.147000", "220225.175000", "220226.132000", "220227.180000"],
