{
  "AcquisitionMatrixPE": 96,
  "AcquisitionNumber": 1,
  "AcquisitionTime": "12:29:15.872500",
  "BandwidthPerPixelPhaseEncode": 18.939,
  "BaseResolution": 96,
  "BodyPartExamined": "BRAIN",
  "ConsistencyInfo": "N4_VE11C_LATEST_20160120",
  "ConversionSoftware": "dcm2niix",
  "ConversionSoftwareVersion": "v1.0.20190902",
  "DerivedVendorReportedEchoSpacing": 0.000550011,
  "DeviceSerialNumber": "66112",
  "DwellTime": 2.2e-06,
  "EchoTime": 0.033,
  "EchoTrainLength": 96,
  "EffectiveEchoSpacing": 0.000550011,
  "FlipAngle": 59,
  "ImageOrientationPatientDICOM": [0.998774, -0.0273447, 0.041256, 0.0258049, 0.998967, 0.0374051],
  "ImageType": [
    "ORIGINAL",
    "PRIMARY",
    "FMRI",
    "NONE",
    "ND",
    "NORM",
    "MOSAIC"
],
  "ImagingFrequency": 123.252,
  "InPlanePhaseEncodingDirectionDICOM": "COL",
  "InstitutionAddress": "Maynard_3_Hanover_NH_US_03755",
  "InstitutionName": "Dartmouth_College_-_PBS",
  "InstitutionalDepartmentName": "Department",
  "MRAcquisitionType": "2D",
  "MagneticFieldStrength": 3,
  "Manufacturer": "Siemens",
  "ManufacturersModelName": "Prisma",
  "Modality": "MR",
  "MultibandAccelerationFactor": 4,
  "PartialFourier": 1,
  "PatientPosition": "HFS",
  "PercentPhaseFOV": 100,
  "PhaseEncodingDirection": "j-",
  "PhaseEncodingSteps": 96,
  "PhaseResolution": 1,
  "PixelBandwidth": 2365,
  "ProcedureStepDescription": "Gobbini_Matteo_1037_budapest",
  "ProtocolName": "func_run-04_task-movie",
  "PulseSequenceDetails": "%SiemensSeq%_ep2d_bold",
  "ReceiveCoilActiveElements": "HEA;HEP",
  "ReceiveCoilName": "Head_32",
  "ReconMatrixPE": 96,
  "RefLinesPE": 12,
  "RepetitionTime": 1,
  "SAR": 0.045515,
  "ScanOptions": "FS",
  "ScanningSequence": "EP",
  "SequenceName": "_epfid2d1_96",
  "SequenceVariant": "SK",
  "SeriesDescription": "func_run-04_task-movie",
  "SeriesNumber": 29,
  "ShimSetting": [4155, -7695, -7412, 609, -63, -74, -47, 103],
  "SliceThickness": 2.5,
  "SliceTiming": [0.735, 0, 0.49, 0.0825, 0.5725, 0.1625, 0.6525, 0.3275, 0.8175, 0.4075, 0.8975, 0.245, 0.735, 0, 0.49, 0.0825, 0.5725, 0.1625, 0.6525, 0.3275, 0.8175, 0.4075, 0.8975, 0.245, 0.735, 0, 0.49, 0.0825, 0.5725, 0.1625, 0.6525, 0.3275, 0.8175, 0.4075, 0.8975, 0.245, 0.735, 0, 0.49, 0.0825, 0.5725, 0.1625, 0.6525, 0.3275, 0.8175, 0.4075, 0.8975, 0.245],
  "SoftwareVersions": "syngo_MR_E11",
  "SpacingBetweenSlices": 2.5,
  "StationName": "AWP66112",
  "TaskName": "movie",
  "TotalReadoutTime": 0.0522511,
  "TxRefAmp": 246.64,
  "dcmmeta_affine": [
    [-2.4969358444213867, 0.06451231241226196, 0.10559049993753433, 116.55382537841797],
    [0.06836183369159698, 2.497417449951172, 0.09073670953512192, -111.76786041259766],
    [0.1031399667263031, -0.09351284801959991, 2.4961204528808594, -87.36836242675781],
    [0.0, 0.0, 0.0, 1.0]
],
  "dcmmeta_reorient_transform": [
    [0.0, -1.0, 0.0, 95.0],
    [1.0, 0.0, 0.0, 0.0],
    [0.0, 0.0, 1.0, 0.0],
    [0.0, 0.0, 0.0, 1.0]
],
  "dcmmeta_shape": [96, 96, 48, 618],
  "dcmmeta_slice_dim": 2,
  "dcmmeta_version": 0.6,
  "global": {
    "const": {
      "AccessionNumber": "A001440",
      "AcquisitionMatrix": [96, 0, 0, 96],
      "AngioFlag": "N",
      "BitsAllocated": 16,
      "BitsStored": 12,
      "BodyPartExamined": "BRAIN",
      "Columns": 672,
      "EchoNumbers": 1,
      "EchoTime": 33.0,
      "EchoTrainLength": 96,
      "FlipAngle": 59.0,
      "HighBit": 11,
      "ImageOrientationPatient": [0.99877435349699, -0.027344732193, 0.04125598644999, 0.02580492547413, 0.99896694712368, 0.03740513835929],
      "ImagePositionPatient": [-860.37957276911, -825.05478376411, -152.88808898042],
      "ImageType": [
        "ORIGINAL",
        "PRIMARY",
        "FMRI",
        "NONE",
        "ND",
        "NORM",
        "MOSAIC"
],
      "ImagedNucleus": "1H",
      "ImagingFrequency": 123.252332,
      "InPlanePhaseEncodingDirection": "COL",
      "MRAcquisitionType": "2D",
      "MagneticFieldStrength": 3.0,
      "Manufacturer": "SIEMENS",
      "ManufacturerModelName": "Prisma",
      "Modality": "MR",
      "NumberOfAverages": 1.0,
      "NumberOfPhaseEncodingSteps": 96,
      "PercentPhaseFieldOfView": 100.0,
      "PercentSampling": 100.0,
      "PerformedProcedureStepStartTime": "112900.041000",
      "PhotometricInterpretation": "MONOCHROME2",
      "PixelBandwidth": 2365.0,
      "PixelRepresentation": 0,
      "PixelSpacing": [2.5, 2.5],
      "ProtocolName": "func_run-04_task-movie",
      "RepetitionTime": 1000.0,
      "Rows": 672,
      "SAR": 0.04551499450192,
      "SamplesPerPixel": 1,
      "ScanOptions": "FS",
      "ScanningSequence": "EP",
      "SequenceName": "*epfid2d1_96",
      "SequenceVariant": "SK",
      "SeriesDescription": "func_run-04_task-movie",
      "SeriesNumber": 29,
      "SeriesTime": "122917.492000",
      "SliceLocation": -86.366568901384,
      "SliceThickness": 2.5,
      "SmallestImagePixelValue": 0,
      "SoftwareVersions": "syngo MR E11",
      "SpacingBetweenSlices": 2.5000000047265,
      "SpecificCharacterSet": "ISO_IR 100",
      "StudyID": "3",
      "StudyTime": "112859.927000",
      "TransmitCoilName": "Body",
      "VariableFlipAngleFlag": "N",
      "WindowCenterWidthExplanation": "Algo1",
      "dBdt": 0.0},
    "slices": {}
  },
  "time": {
    "samples": {
      "AcquisitionNumber": [1, 2, 3, 4, 5, 6, 7, 8, 9, 10, 11, 12, 13, 14, 15, 16, 17, 18, 19, 20, 21, 22, 23, 24, 25, 26, 27, 28, 29, 30, 31, 32, 33, 34, 35, 36, 37, 38, 39, 40, 41, 42, 43, 44, 45, 46, 47, 48, 49, 50, 51, 52, 53, 54, 55, 56, 57, 58, 59, 60, 61, 62, 63, 64, 65, 66, 67, 68, 69, 70, 71, 72, 73, 74, 75, 76, 77, 78, 79, 80, 81, 82, 83, 84, 85, 86, 87, 88, 89, 90, 91, 92, 93, 94, 95, 96, 97, 98, 99, 100, 101, 102, 103, 104, 105, 106, 107, 108, 109, 110, 111, 112, 113, 114, 115, 116, 117, 118, 119, 120, 121, 122, 123, 124, 125, 126, 127, 128, 129, 130, 131, 132, 133, 134, 135, 136, 137, 138, 139, 140, 141, 142, 143, 144, 145, 146, 147, 148, 149, 150, 151, 152, 153, 154, 155, 156, 157, 158, 159, 160, 161, 162, 163, 164, 165, 166, 167, 168, 169, 170, 171, 172, 173, 174, 175, 176, 177, 178, 179, 180, 181, 182, 183, 184, 185, 186, 187, 188, 189, 190, 191, 192, 193, 194, 195, 196, 197, 198, 199, 200, 201, 202, 203, 204, 205, 206, 207, 208, 209, 210, 211, 212, 213, 214, 215, 216, 217, 218, 219, 220, 221, 222, 223, 224, 225, 226, 227, 228, 229, 230, 231, 232, 233, 234, 235, 236, 237, 238, 239, 240, 241, 242, 243, 244, 245, 246, 247, 248, 249, 250, 251, 252, 253, 254, 255, 256, 257, 258, 259, 260, 261, 262, 263, 264, 265, 266, 267, 268, 269, 270, 271, 272, 273, 274, 275, 276, 277, 278, 279, 280, 281, 282, 283, 284, 285, 286, 287, 288, 289, 290, 291, 292, 293, 294, 295, 296, 297, 298, 299, 300, 301, 302, 303, 304, 305, 306, 307, 308, 309, 310, 311, 312, 313, 314, 315, 316, 317, 318, 319, 320, 321, 322, 323, 324, 325, 326, 327, 328, 329, 330, 331, 332, 333, 334, 335, 336, 337, 338, 339, 340, 341, 342, 343, 344, 345, 346, 347, 348, 349, 350, 351, 352, 353, 354, 355, 356, 357, 358, 359, 360, 361, 362, 363, 364, 365, 366, 367, 368, 369, 370, 371, 372, 373, 374, 375, 376, 377, 378, 379, 380, 381, 382, 383, 384, 385, 386, 387, 388, 389, 390, 391, 392, 393, 394, 395, 396, 397, 398, 399, 400, 401, 402, 403, 404, 405, 406, 407, 408, 409, 410, 411, 412, 413, 414, 415, 416, 417, 418, 419, 420, 421, 422, 423, 424, 425, 426, 427, 428, 429, 430, 431, 432, 433, 434, 435, 436, 437, 438, 439, 440, 441, 442, 443, 444, 445, 446, 447, 448, 449, 450, 451, 452, 453, 454, 455, 456, 457, 458, 459, 460, 461, 462, 463, 464, 465, 466, 467, 468, 469, 470, 471, 472, 473, 474, 475, 476, 477, 478, 479, 480, 481, 482, 483, 484, 485, 486, 487, 488, 489, 490, 491, 492, 493, 494, 495, 496, 497, 498, 499, 500, 501, 502, 503, 504, 505, 506, 507, 508, 509, 510, 511, 512, 513, 514, 515, 516, 517, 518, 519, 520, 521, 522, 523, 524, 525, 526, 527, 528, 529, 530, 531, 532, 533, 534, 535, 536, 537, 538, 539, 540, 541, 542, 543, 544, 545, 546, 547, 548, 549, 550, 551, 552, 553, 554, 555, 556, 557, 558, 559, 560, 561, 562, 563, 564, 565, 566, 567, 568, 569, 570, 571, 572, 573, 574, 575, 576, 577, 578, 579, 580, 581, 582, 583, 584, 585, 586, 587, 588, 589, 590, 591, 592, 593, 594, 595, 596, 597, 598, 599, 600, 601, 602, 603, 604, 605, 606, 607, 608, 609, 610, 611, 612, 613, 614, 615, 616, 617, 618],
      "AcquisitionTime": ["122915.872500", "122916.872500", "122917.872500", "122918.872500", "122919.872500", "122920.872500", "122921.872500", "122922.872500", "122923.872500", "122924.872500", "122925.872500", "122926.872500", "122927.872500", "122928.872500", "122929.872500", "122930.872500", "122931.872500", "122932.872500", "122933.872500", "122934.872500", "122935.872500", "122936.872500", "122937.872500", "122938.872500", "122939.872500", "122940.872500", "122941.872500", "122942.872500", "122943.872500", "122944.872500", "122945.872500", "122946.872500", "122947.872500", "122948.872500", "122949.872500", "122950.872500", "122951.872500", "122952.872500", "122953.872500", "122954.872500", "122955.872500", "122956.872500", "122957.872500", "122958.872500", "122959.872500", "123000.872500", "123001.872500", "123002.872500", "123003.872500", "123004.872500", "123005.872500", "123006.872500", "123007.872500", "123008.872500", "123009.872500", "123010.872500", "123011.872500", "123012.872500", "123013.872500", "123014.872500", "123015.872500", "123016.872500", "123017.872500", "123018.872500", "123019.872500", "123020.872500", "123021.872500", "123022.872500", "123023.872500", "123024.872500", "123025.872500", "123026.872500", "123027.872500", "123028.872500", "123029.872500", "123030.872500", "123031.872500", "123032.872500", "123033.872500", "123034.872500", "123035.872500", "123036.872500", "123037.872500", "123038.872500", "123039.872500", "123040.872500", "123041.872500", "123042.872500", "123043.872500", "123044.872500", "123045.872500", "123046.872500", "123047.872500", "123048.872500", "123049.872500", "123050.872500", "123051.872500", "123052.872500", "123053.872500", "123054.872500", "123055.872500", "123056.872500", "123057.872500", "123058.872500", "123059.872500", "123100.872500", "123101.872500", "123102.872500", "123103.872500", "123104.872500", "123105.872500", "123106.872500", "123107.872500", "123108.872500", "123109.872500", "123110.872500", "123111.872500", "123112.872500", "123113.872500", "123114.872500", "123115.872500", "123116.872500", "123117.872500", "123118.872500", "123119.872500", "123120.872500", "123121.872500", "123122.872500", "123123.872500", "123124.872500", "123125.872500", "123126.872500", "123127.872500", "123128.872500", "123129.872500", "123130.872500", "123131.872500", "123132.872500", "123133.872500", "123134.872500", "123135.872500", "123136.872500", "123137.872500", "123138.872500", "123139.872500", "123140.872500", "123141.872500", "123142.872500", "123143.872500", "123144.872500", "123145.872500", "123146.872500", "123147.872500", "123148.872500", "123149.872500", "123150.872500", "123151.872500", "123152.872500", "123153.872500", "123154.872500", "123155.872500", "123156.872500", "123157.872500", "123158.872500", "123159.872500", "123200.872500", "123201.872500", "123202.872500", "123203.872500", "123204.872500", "123205.872500", "123206.872500", "123207.872500", "123208.872500", "123209.872500", "123210.872500", "123211.872500", "123212.872500", "123213.872500", "123214.872500", "123215.872500", "123216.872500", "123217.872500", "123218.872500", "123219.872500", "123220.872500", "123221.872500", "123222.872500", "123223.872500", "123224.872500", "123225.872500", "123226.872500", "123227.872500", "123228.872500", "123229.872500", "123230.872500", "123231.872500", "123232.872500", "123233.872500", "123234.872500", "123235.872500", "123236.872500", "123237.872500", "123238.872500", "123239.872500", "123240.872500", "123241.872500", "123242.872500", "123243.872500", "123244.872500", "123245.872500", "123246.872500", "123247.872500", "123248.872500", "123249.872500", "123250.872500", "123251.872500", "123252.872500", "123253.872500", "123254.872500", "123255.872500", "123256.872500", "123257.872500", "123258.872500", "123259.872500", "123300.872500", "123301.872500", "123302.872500", "123303.872500", "123304.872500", "123305.872500", "123306.872500", "123307.872500", "123308.872500", "123309.872500", "123310.872500", "123311.872500", "123312.872500", "123313.872500", "123314.872500", "123315.872500", "123316.872500", "123317.872500", "123318.872500", "123319.872500", "123320.872500", "123321.872500", "123322.872500", "123323.872500", "123324.872500", "123325.872500", "123326.872500", "123327.872500", "123328.872500", "123329.872500", "123330.872500", "123331.872500", "123332.872500", "123333.872500", "123334.872500", "123335.872500", "123336.872500", "123337.872500", "123338.872500", "123339.872500", "123340.872500", "123341.872500", "123342.872500", "123343.872500", "123344.872500", "123345.872500", "123346.872500", "123347.872500", "123348.872500", "123349.872500", "123350.872500", "123351.872500", "123352.872500", "123353.872500", "123354.872500", "123355.872500", "123356.872500", "123357.872500", "123358.872500", "123359.872500", "123400.872500", "123401.872500", "123402.872500", "123403.872500", "123404.872500", "123405.872500", "123406.872500", "123407.872500", "123408.872500", "123409.872500", "123410.872500", "123411.872500", "123412.872500", "123413.872500", "123414.872500", "123415.872500", "123416.872500", "123417.872500", "123418.872500", "123419.872500", "123420.872500", "123421.872500", "123422.872500", "123423.872500", "123424.872500", "123425.872500", "123426.872500", "123427.872500", "123428.872500", "123429.872500", "123430.872500", "123431.872500", "123432.872500", "123433.872500", "123434.872500", "123435.872500", "123436.872500", "123437.872500", "123438.872500", "123439.872500", "123440.872500", "123441.872500", "123442.872500", "123443.872500", "123444.872500", "123445.872500", "123446.872500", "123447.872500", "123448.872500", "123449.872500", "123450.872500", "123451.872500", "123452.872500", "123453.872500", "123454.872500", "123455.872500", "123456.872500", "123457.872500", "123458.872500", "123459.872500", "123500.872500", "123501.872500", "123502.872500", "123503.872500", "123504.872500", "123505.872500", "123506.872500", "123507.872500", "123508.872500", "123509.872500", "123510.872500", "123511.872500", "123512.872500", "123513.872500", "123514.872500", "123515.872500", "123516.872500", "123517.872500", "123518.872500", "123519.872500", "123520.872500", "123521.872500", "123522.872500", "123523.872500", "123524.872500", "123525.872500", "123526.872500", "123527.872500", "123528.872500", "123529.872500", "123530.872500", "123531.872500", "123532.872500", "123533.872500", "123534.872500", "123535.872500", "123536.872500", "123537.872500", "123538.872500", "123539.872500", "123540.872500", "123541.872500", "123542.872500", "123543.872500", "123544.872500", "123545.872500", "123546.872500", "123547.872500", "123548.872500", "123549.872500", "123550.872500", "123551.872500", "123552.872500", "123553.872500", "123554.872500", "123555.872500", "123556.872500", "123557.872500", "123558.872500", "123559.872500", "123600.872500", "123601.872500", "123602.872500", "123603.872500", "123604.872500", "123605.872500", "123606.872500", "123607.872500", "123608.872500", "123609.872500", "123610.872500", "123611.872500", "123612.872500", "123613.872500", "123614.872500", "123615.872500", "123616.872500", "123617.872500", "123618.872500", "123619.872500", "123620.872500", "123621.872500", "123622.872500", "123623.872500", "123624.872500", "123625.872500", "123626.872500", "123627.872500", "123628.872500", "123629.872500", "123630.872500", "123631.872500", "123632.872500", "123633.872500", "123634.872500", "123635.872500", "123636.872500", "123637.872500", "123638.872500", "123639.872500", "123640.872500", "123641.872500", "123642.872500", "123643.872500", "123644.872500", "123645.872500", "123646.872500", "123647.872500", "123648.872500", "123649.872500", "123650.872500", "123651.872500", "123652.872500", "123653.872500", "123654.872500", "123655.872500", "123656.872500", "123657.872500", "123658.872500", "123659.872500", "123700.872500", "123701.872500", "123702.872500", "123703.872500", "123704.872500", "123705.872500", "123706.872500", "123707.872500", "123708.872500", "123709.872500", "123710.872500", "123711.872500", "123712.872500", "123713.872500", "123714.872500", "123715.872500", "123716.872500", "123717.872500", "123718.872500", "123719.872500", "123720.872500", "123721.872500", "123722.872500", "123723.872500", "123724.872500", "123725.872500", "123726.872500", "123727.872500", "123728.872500", "123729.872500", "123730.872500", "123731.872500", "123732.872500", "123733.872500", "123734.872500", "123735.872500", "123736.872500", "123737.872500", "123738.872500", "123739.872500", "123740.872500", "123741.872500", "123742.872500", "123743.872500", "123744.872500", "123745.872500", "123746.872500", "123747.872500", "123748.872500", "123749.872500", "123750.872500", "123751.872500", "123752.872500", "123753.872500", "123754.872500", "123755.872500", "123756.872500", "123757.872500", "123758.872500", "123759.872500", "123800.872500", "123801.872500", "123802.872500", "123803.872500", "123804.872500", "123805.872500", "123806.872500", "123807.872500", "123808.872500", "123809.872500", "123810.872500", "123811.872500", "123812.872500", "123813.872500", "123814.872500", "123815.872500", "123816.872500", "123817.872500", "123818.872500", "123819.872500", "123820.872500", "123821.872500", "123822.872500", "123823.872500", "123824.872500", "123825.872500", "123826.872500", "123827.872500", "123828.872500", "123829.872500", "123830.872500", "123831.872500", "123832.872500", "123833.872500", "123834.872500", "123835.872500", "123836.872500", "123837.872500", "123838.872500", "123839.872500", "123840.872500", "123841.872500", "123842.872500", "123843.872500", "123844.872500", "123845.872500", "123846.872500", "123847.872500", "123848.872500", "123849.872500", "123850.872500", "123851.872500", "123852.872500", "123853.872500", "123854.872500", "123855.872500", "123856.872500", "123857.872500", "123858.872500", "123859.872500", "123900.872500", "123901.872500", "123902.872500", "123903.872500", "123904.872500", "123905.872500", "123906.872500", "123907.872500", "123908.872500", "123909.872500", "123910.872500", "123911.872500", "123912.872500", "123913.872500", "123914.872500", "123915.872500", "123916.872500", "123917.872500", "123918.872500", "123919.872500", "123920.872500", "123921.872500", "123922.872500", "123923.872500", "123924.872500", "123925.872500", "123926.872500", "123927.872500", "123928.872500", "123929.872500", "123930.872500", "123931.872500", "123932.872500"],
      "ContentTime": ["122917.496000", "122918.349000", "122919.360000", "122920.351000", "122921.351000", "122922.364000", "122923.362000", "122924.347000", "122925.398000", "122926.373000", "122927.360000", "122928.362000", "122929.343000", "122930.341000", "122931.364000", "122932.348000", "122933.338000", "122934.377000", "122935.374000", "122936.358000", "122937.371000", "122938.343000", "122939.351000", "122940.350000", "122941.372000", "122942.399000", "122943.353000", "122944.339000", "122945.369000", "122946.352000", "122947.373000", "122948.367000", "122949.367000", "122950.392000", "122951.353000", "122952.364000", "122953.358000", "122954.358000", "122955.334000", "122956.357000", "122957.373000", "122958.341000", "122959.344000", "123000.360000", "123001.379000", "123002.357000", "123003.317000", "123004.375000", "123005.389000", "123006.335000", "123007.336000", "123008.362000", "123009.352000", "123010.328000", "123011.341000", "123012.337000", "123013.362000", "123014.341000", "123015.356000", "123016.336000", "123017.343000", "123018.353000", "123019.368000", "123020.369000", "123021.325000", "123022.348000", "123023.361000", "123024.355000", "123025.348000", "123026.367000", "123027.338000", "123028.354000", "123029.351000", "123030.336000", "123031.342000", "123032.419000", "123033.344000", "123034.359000", "123035.359000", "123036.340000", "123037.325000", "123038.345000", "123039.343000", "123040.351000", "123041.332000", "123042.355000", "123043.332000", "123044.416000", "123045.351000", "123046.326000", "123047.344000", "123048.388000", "123049.327000", "123050.353000", "123051.332000", "123052.349000", "123053.375000", "123054.364000", "123055.349000", "123056.379000", "123057.360000", "123058.401000", "123059.358000", "123100.359000", "123101.336000", "123102.344000", "123103.401000", "123104.374000", "123105.365000", "123106.333000", "123107.353000", "123108.368000", "123109.345000", "123110.338000", "123111.359000", "123112.329000", "123113.342000", "123114.355000", "123115.343000", "123116.347000", "123117.360000", "123118.350000", "123119.359000", "123120.343000", "123121.354000", "123122.384000", "123123.336000", "123124.361000", "123125.339000", "123126.347000", "123127.349000", "123128.336000", "123129.335000", "123130.371000", "123131.348000", "123132.376000", "123133.356000", "123134.344000", "123135.338000", "123136.363000", "123137.357000", "123138.369000", "123139.341000", "123140.344000", "123141.352000", "123142.416000", "123143.331000", "123144.371000", "123145.344000", "123146.339000", "123147.345000", "123148.360000", "123149.340000", "123150.345000", "123151.320000", "123152.331000", "123153.352000", "123154.319000", "123155.351000", "123156.343000", "123157.360000", "123158.351000", "123159.346000", "123200.341000", "123201.385000", "123202.351000", "123203.331000", "123204.345000", "123205.419000", "123206.335000", "123207.339000", "123208.355000", "123209.353000", "123210.329000", "123211.357000", "123212.324000", "123213.356000", "123214.332000", "123215.343000", "123216.350000", "123217.345000", "123218.357000", "123219.342000", "123220.350000", "123221.351000", "123222.336000", "123223.363000", "123224.362000", "123225.331000", "123226.346000", "123227.358000", "123228.402000", "123229.337000", "123230.318000", "123231.345000", "123232.352000", "123233.402000", "123234.365000", "123235.373000", "123236.400000", "123237.356000", "123238.342000", "123239.357000", "123240.328000", "123241.327000", "123242.332000", "123243.327000", "123244.341000", "123245.347000", "123246.345000", "123247.351000", "123248.361000", "123249.359000", "123250.338000", "123251.343000", "123252.363000", "123253.395000", "123254.345000", "123255.326000", "123256.400000", "123257.334000", "123258.362000", "123259.353000", "123300.338000", "123301.344000", "123302.358000", "123303.367000", "123304.335000", "123305.349000", "123306.340000", "123307.389000", "123308.344000", "123309.313000", "123310.345000", "123311.342000", "123312.324000", "123313.342000", "123314.376000", "123315.345000", "123316.335000", "123317.322000", "123318.348000", "123319.348000", "123320.353000", "123321.326000", "123322.326000", "123323.348000", "123324.348000", "123325.341000", "123326.344000", "123327.339000", "123328.348000", "123329.332000", "123330.362000", "123331.405000", "123332.375000", "123333.371000", "123334.345000", "123335.348000", "123336.343000", "123337.340000", "123338.347000", "123339.339000", "123340.341000", "123341.372000", "123342.340000", "123343.344000", "123344.371000", "123345.363000", "123346.353000", "123347.355000", "123348.382000", "123349.357000", "123350.343000", "123351.389000", "123352.352000", "123353.380000", "123354.343000", "123355.341000", "123356.343000", "123357.341000", "123358.353000", "123359.335000", "123400.348000", "123401.341000", "123402.358000", "123403.371000", "123404.356000", "123405.339000", "123406.362000", "123407.335000", "123408.349000", "123409.357000", "123410.333000", "123411.347000", "123412.338000", "123413.339000", "123414.339000", "123415.348000", "123416.387000", "123417.361000", "123418.314000", "123419.341000", "123420.438000", "123421.339000", "123422.336000", "123423.351000", "123424.343000", "123425.320000", "123426.341000", "123427.351000", "123428.335000", "123429.339000", "123430.342000", "123431.353000", "123432.334000", "123433.365000", "123434.326000", "123435.331000", "123436.372000", "123437.364000", "123438.355000", "123439.336000", "123440.318000", "123441.343000", "123442.313000", "123443.366000", "123444.347000", "123445.362000", "123446.347000", "123447.388000", "123448.366000", "123449.367000", "123450.340000", "123451.346000", "123452.351000", "123453.344000", "123454.337000", "123455.334000", "123456.328000", "123457.310000", "123458.345000", "123459.308000", "123500.327000", "123501.347000", "123502.348000", "123503.377000", "123504.342000", "123505.366000", "123506.346000", "123507.355000", "123508.337000", "123509.341000", "123510.338000", "123511.365000", "123512.354000", "123513.344000", "123514.339000", "123515.334000", "123516.342000", "123517.344000", "123518.355000", "123519.370000", "123520.334000", "123521.342000", "123522.323000", "123523.291000", "123524.355000", "123525.385000", "123526.390000", "123527.325000", "123528.344000", "123529.324000", "123530.332000", "123531.326000", "123532.351000", "123533.377000", "123534.348000", "123535.361000", "123536.357000", "123537.338000", "123538.352000", "123539.347000", "123540.362000", "123541.341000", "123542.347000", "123543.366000", "123544.296000", "123545.366000", "123546.328000", "123547.351000", "123548.377000", "123549.324000", "123550.316000", "123551.328000", "123552.350000", "123553.406000", "123554.361000", "123555.360000", "123556.326000", "123557.336000", "123558.355000", "123559.368000", "123600.344000", "123601.352000", "123602.331000", "123603.327000", "123604.347000", "123605.341000", "123606.350000", "123607.367000", "123608.353000", "123609.371000", "123610.353000", "123611.356000", "123612.370000", "123613.316000", "123614.354000", "123615.356000", "123616.367000", "123617.345000", "123618.367000", "123619.337000", "123620.383000", "123621.373000", "123622.348000", "123623.344000", "123624.340000", "123625.348000", "123626.304000", "123627.345000", "123628.359000", "123629.375000", "123630.365000", "123631.334000", "123632.339000", "123633.359000", "123634.375000", "123635.368000", "123636.353000", "123637.342000", "123638.331000", "123639.338000", "123640.364000", "123641.338000", "123642.344000", "123643.365000", "123644.348000", "123645.338000", "123646.354000", "123647.346000", "123648.331000", "123649.354000", "123650.351000", "123651.348000", "123652.371000", "123653.367000", "123654.346000", "123655.352000", "123656.349000", "123657.370000", "123658.331000", "123659.361000", "123700.309000", "123701.343000", "123702.352000", "123703.360000", "123704.397000", "123705.350000", "123706.379000", "123707.346000", "123708.373000", "123709.368000", "123710.363000", "123711.385000", "123712.347000", "123713.337000", "123714.370000", "123715.352000", "123716.394000", "123717.364000", "123718.393000", "123719.377000", "123720.385000", "123721.339000", "123722.341000", "123723.341000", "123724.328000", "123725.352000", "123726.345000", "123727.362000", "123728.328000", "123729.337000", "123730.341000", "123731.359000", "123732.332000", "123733.336000", "123734.339000", "123735.328000", "123736.304000", "123737.355000", "123738.328000", "123739.422000", "123740.343000", "123741.363000", "123742.356000", "123743.380000", "123744.356000", "123745.338000", "123746.336000", "123747.345000", "123748.371000", "123749.359000", "123750.339000", "123751.348000", "123752.349000", "123753.362000", "123754.315000", "123755.333000", "123756.367000", "123757.325000", "123758.402000", "123759.342000", "123800.350000", "123801.320000", "123802.359000", "123803.342000", "123804.331000", "123805.344000", "123806.345000", "123807.340000", "123808.342000", "123809.320000", "123810.364000", "123811.346000", "123812.339000", "123813.361000", "123814.410000", "123815.324000", "123816.324000", "123817.339000", "123818.291000", "123819.332000", "123820.346000", "123821.338000", "123822.343000", "123823.351000", "123824.361000", "123825.352000", "123826.326000", "123827.336000", "123828.340000", "123829.336000", "123830.326000", "123831.306000", "123832.347000", "123833.326000", "123834.365000", "123835.331000", "123836.316000", "123837.318000", "123838.377000", "123839.340000", "123840.352000", "123841.318000", "123842.347000", "123843.374000", "123844.347000", "123845.337000", "123846.333000", "123847.353000", "123848.370000", "123849.351000", "123850.329000", "123851.336000", "123852.297000", "123853.328000", "123854.330000", "123855.362000", "123856.363000", "123857.339000", "123858.339000", "123859.397000", "123900.349000", "123901.351000", "123902.359000", "123903.364000", "123904.400000", "123905.347000", "123906.337000", "123907.354000", "123908.319000", "123909.352000", "123910.358000", "123911.339000", "123912.361000", "123913.310000", "123914.336000", "123915.345000", "123916.344000", "123917.401000", "123918.358000", "123919.342000", "123920.344000", "123921.379000", "123922.405000", "123923.371000", "123924.387000", "123925.362000", "123926.388000", "123927.384000", "123928.359000", "123929.347000", "123930.355000", "123931.385000", "123932.386000", "123933.362000", "123934.363000"],
