{
  "AcquisitionMatrixPE": 96,
  "AcquisitionNumber": 1,
  "AcquisitionTime": "12:00:17.002500",
  "BandwidthPerPixelPhaseEncode": 18.939,
  "BaseResolution": 96,
  "BodyPartExamined": "BRAIN",
  "ConsistencyInfo": "N4_VE11C_LATEST_20160120",
  "ConversionSoftware": "dcm2niix",
  "ConversionSoftwareVersion": "v1.0.20190902",
  "DerivedVendorReportedEchoSpacing": 0.000550011,
  "DeviceSerialNumber": "66112",
  "DwellTime": 2.2e-06,
  "EchoTime": 0.033,
  "EchoTrainLength": 96,
  "EffectiveEchoSpacing": 0.000550011,
  "FlipAngle": 59,
  "ImageOrientationPatientDICOM": [0.998774, -0.0273447, 0.041256, 0.0258049, 0.998967, 0.0374051],
  "ImageType": [
    "ORIGINAL",
    "PRIMARY",
    "FMRI",
    "NONE",
    "ND",
    "NORM",
    "MOSAIC"
],
  "ImagingFrequency": 123.252,
  "InPlanePhaseEncodingDirectionDICOM": "COL",
  "InstitutionAddress": "Maynard_3_Hanover_NH_US_03755",
  "InstitutionName": "Dartmouth_College_-_PBS",
  "InstitutionalDepartmentName": "Department",
  "MRAcquisitionType": "2D",
  "MagneticFieldStrength": 3,
  "Manufacturer": "Siemens",
  "ManufacturersModelName": "Prisma",
  "Modality": "MR",
  "MultibandAccelerationFactor": 4,
  "PartialFourier": 1,
  "PatientPosition": "HFS",
  "PercentPhaseFOV": 100,
  "PhaseEncodingDirection": "j-",
  "PhaseEncodingSteps": 96,
  "PhaseResolution": 1,
  "PixelBandwidth": 2365,
  "ProcedureStepDescription": "Gobbini_Matteo_1037_budapest",
  "ProtocolName": "func_run-01_task-movie",
  "PulseSequenceDetails": "%SiemensSeq%_ep2d_bold",
  "ReceiveCoilActiveElements": "HEA;HEP",
  "ReceiveCoilName": "Head_32",
  "ReconMatrixPE": 96,
  "RefLinesPE": 12,
  "RepetitionTime": 1,
  "SAR": 0.045507,
  "ScanOptions": "FS",
  "ScanningSequence": "EP",
  "SequenceName": "_epfid2d1_96",
  "SequenceVariant": "SK",
  "SeriesDescription": "func_run-01_task-movie",
  "SeriesNumber": 8,
  "ShimSetting": [4155, -7695, -7412, 609, -63, -74, -47, 103],
  "SliceThickness": 2.5,
  "SliceTiming": [0.735, 0, 0.49, 0.0825, 0.5725, 0.165, 0.655, 0.3275, 0.8175, 0.41, 0.9, 0.245, 0.735, 0, 0.49, 0.0825, 0.5725, 0.165, 0.655, 0.3275, 0.8175, 0.41, 0.9, 0.245, 0.735, 0, 0.49, 0.0825, 0.5725, 0.165, 0.655, 0.3275, 0.8175, 0.41, 0.9, 0.245, 0.735, 0, 0.49, 0.0825, 0.5725, 0.165, 0.655, 0.3275, 0.8175, 0.41, 0.9, 0.245],
  "SoftwareVersions": "syngo_MR_E11",
  "SpacingBetweenSlices": 2.5,
  "StationName": "AWP66112",
  "TaskName": "movie",
  "TotalReadoutTime": 0.0522511,
  "TxRefAmp": 246.64,
  "dcmmeta_affine": [
    [-2.4969358444213867, 0.06451231241226196, 0.10559049993753433, 116.55382537841797],
    [0.06836183369159698, 2.497417449951172, 0.09073670953512192, -111.76786041259766],
    [0.1031399667263031, -0.09351284801959991, 2.4961204528808594, -87.36836242675781],
    [0.0, 0.0, 0.0, 1.0]
],
  "dcmmeta_reorient_transform": [
    [0.0, -1.0, 0.0, 95.0],
    [1.0, 0.0, 0.0, 0.0],
    [0.0, 0.0, 1.0, 0.0],
    [0.0, 0.0, 0.0, 1.0]
],
  "dcmmeta_shape": [96, 96, 48, 598],
  "dcmmeta_slice_dim": 2,
  "dcmmeta_version": 0.6,
  "global": {
    "const": {
      "AccessionNumber": "A001440",
      "AcquisitionMatrix": [96, 0, 0, 96],
      "AngioFlag": "N",
      "BitsAllocated": 16,
      "BitsStored": 12,
      "BodyPartExamined": "BRAIN",
      "Columns": 672,
      "EchoNumbers": 1,
      "EchoTime": 33.0,
      "EchoTrainLength": 96,
      "FlipAngle": 59.0,
      "HighBit": 11,
      "ImageOrientationPatient": [0.99877435349699, -0.027344732193, 0.04125598644999, 0.02580492547413, 0.99896694712368, 0.03740513835929],
      "ImagePositionPatient": [-860.37957276911, -825.05478376411, -152.88808898042],
      "ImageType": [
        "ORIGINAL",
        "PRIMARY",
        "FMRI",
        "NONE",
        "ND",
        "NORM",
        "MOSAIC"
],
      "ImagedNucleus": "1H",
      "ImagingFrequency": 123.252317,
      "InPlanePhaseEncodingDirection": "COL",
      "MRAcquisitionType": "2D",
      "MagneticFieldStrength": 3.0,
      "Manufacturer": "SIEMENS",
      "ManufacturerModelName": "Prisma",
      "Modality": "MR",
      "NumberOfAverages": 1.0,
      "NumberOfPhaseEncodingSteps": 96,
      "PercentPhaseFieldOfView": 100.0,
      "PercentSampling": 100.0,
      "PerformedProcedureStepStartTime": "112900.041000",
      "PhotometricInterpretation": "MONOCHROME2",
      "PixelBandwidth": 2365.0,
      "PixelRepresentation": 0,
      "PixelSpacing": [2.5, 2.5],
      "ProtocolName": "func_run-01_task-movie",
      "RepetitionTime": 1000.0,
      "Rows": 672,
      "SAR": 0.04550703447919,
      "SamplesPerPixel": 1,
      "ScanOptions": "FS",
      "ScanningSequence": "EP",
      "SequenceName": "*epfid2d1_96",
      "SequenceVariant": "SK",
      "SeriesDescription": "func_run-01_task-movie",
      "SeriesNumber": 8,
      "SeriesTime": "120018.524000",
      "SliceLocation": -86.366568901384,
      "SliceThickness": 2.5,
      "SmallestImagePixelValue": 0,
      "SoftwareVersions": "syngo MR E11",
      "SpacingBetweenSlices": 2.5000000047265,
      "SpecificCharacterSet": "ISO_IR 100",
      "StudyID": "3",
      "StudyTime": "112859.927000",
      "TransmitCoilName": "Body",
      "VariableFlipAngleFlag": "N",
      "WindowCenterWidthExplanation": "Algo1",
      "dBdt": 0.0},
    "slices": {}
  },
  "time": {
    "samples": {
      "AcquisitionNumber": [1, 2, 3, 4, 5, 6, 7, 8, 9, 10, 11, 12, 13, 14, 15, 16, 17, 18, 19, 20, 21, 22, 23, 24, 25, 26, 27, 28, 29, 30, 31, 32, 33, 34, 35, 36, 37, 38, 39, 40, 41, 42, 43, 44, 45, 46, 47, 48, 49, 50, 51, 52, 53, 54, 55, 56, 57, 58, 59, 60, 61, 62, 63, 64, 65, 66, 67, 68, 69, 70, 71, 72, 73, 74, 75, 76, 77, 78, 79, 80, 81, 82, 83, 84, 85, 86, 87, 88, 89, 90, 91, 92, 93, 94, 95, 96, 97, 98, 99, 100, 101, 102, 103, 104, 105, 106, 107, 108, 109, 110, 111, 112, 113, 114, 115, 116, 117, 118, 119, 120, 121, 122, 123, 124, 125, 126, 127, 128, 129, 130, 131, 132, 133, 134, 135, 136, 137, 138, 139, 140, 141, 142, 143, 144, 145, 146, 147, 148, 149, 150, 151, 152, 153, 154, 155, 156, 157, 158, 159, 160, 161, 162, 163, 164, 165, 166, 167, 168, 169, 170, 171, 172, 173, 174, 175, 176, 177, 178, 179, 180, 181, 182, 183, 184, 185, 186, 187, 188, 189, 190, 191, 192, 193, 194, 195, 196, 197, 198, 199, 200, 201, 202, 203, 204, 205, 206, 207, 208, 209, 210, 211, 212, 213, 214, 215, 216, 217, 218, 219, 220, 221, 222, 223, 224, 225, 226, 227, 228, 229, 230, 231, 232, 233, 234, 235, 236, 237, 238, 239, 240, 241, 242, 243, 244, 245, 246, 247, 248, 249, 250, 251, 252, 253, 254, 255, 256, 257, 258, 259, 260, 261, 262, 263, 264, 265, 266, 267, 268, 269, 270, 271, 272, 273, 274, 275, 276, 277, 278, 279, 280, 281, 282, 283, 284, 285, 286, 287, 288, 289, 290, 291, 292, 293, 294, 295, 296, 297, 298, 299, 300, 301, 302, 303, 304, 305, 306, 307, 308, 309, 310, 311, 312, 313, 314, 315, 316, 317, 318, 319, 320, 321, 322, 323, 324, 325, 326, 327, 328, 329, 330, 331, 332, 333, 334, 335, 336, 337, 338, 339, 340, 341, 342, 343, 344, 345, 346, 347, 348, 349, 350, 351, 352, 353, 354, 355, 356, 357, 358, 359, 360, 361, 362, 363, 364, 365, 366, 367, 368, 369, 370, 371, 372, 373, 374, 375, 376, 377, 378, 379, 380, 381, 382, 383, 384, 385, 386, 387, 388, 389, 390, 391, 392, 393, 394, 395, 396, 397, 398, 399, 400, 401, 402, 403, 404, 405, 406, 407, 408, 409, 410, 411, 412, 413, 414, 415, 416, 417, 418, 419, 420, 421, 422, 423, 424, 425, 426, 427, 428, 429, 430, 431, 432, 433, 434, 435, 436, 437, 438, 439, 440, 441, 442, 443, 444, 445, 446, 447, 448, 449, 450, 451, 452, 453, 454, 455, 456, 457, 458, 459, 460, 461, 462, 463, 464, 465, 466, 467, 468, 469, 470, 471, 472, 473, 474, 475, 476, 477, 478, 479, 480, 481, 482, 483, 484, 485, 486, 487, 488, 489, 490, 491, 492, 493, 494, 495, 496, 497, 498, 499, 500, 501, 502, 503, 504, 505, 506, 507, 508, 509, 510, 511, 512, 513, 514, 515, 516, 517, 518, 519, 520, 521, 522, 523, 524, 525, 526, 527, 528, 529, 530, 531, 532, 533, 534, 535, 536, 537, 538, 539, 540, 541, 542, 543, 544, 545, 546, 547, 548, 549, 550, 551, 552, 553, 554, 555, 556, 557, 558, 559, 560, 561, 562, 563, 564, 565, 566, 567, 568, 569, 570, 571, 572, 573, 574, 575, 576, 577, 578, 579, 580, 581, 582, 583, 584, 585, 586, 587, 588, 589, 590, 591, 592, 593, 594, 595, 596, 597, 598],
      "AcquisitionTime": ["120017.002500", "120018.002500", "120019.002500", "120020.002500", "120021.002500", "120022.002500", "120023.002500", "120024.002500", "120025.002500", "120026.002500", "120027.002500", "120028.002500", "120029.002500", "120030.002500", "120031.002500", "120032.002500", "120033.002500", "120034.002500", "120035.002500", "120036.002500", "120037.002500", "120038.002500", "120039.002500", "120040.002500", "120041.002500", "120042.002500", "120043.002500", "120044.002500", "120045.002500", "120046.002500", "120047.002500", "120048.002500", "120049.002500", "120050.002500", "120051.002500", "120052.002500", "120053.002500", "120054.002500", "120055.002500", "120056.002500", "120057.002500", "120058.002500", "120059.002500", "120100.002500", "120101.002500", "120102.002500", "120103.002500", "120104.002500", "120105.002500", "120106.002500", "120107.002500", "120108.002500", "120109.002500", "120110.002500", "120111.002500", "120112.002500", "120113.002500", "120114.002500", "120115.002500", "120116.002500", "120117.002500", "120118.002500", "120119.002500", "120120.002500", "120121.002500", "120122.002500", "120123.002500", "120124.002500", "120125.002500", "120126.002500", "120127.002500", "120128.002500", "120129.002500", "120130.002500", "120131.002500", "120132.002500", "120133.002500", "120134.002500", "120135.002500", "120136.002500", "120137.002500", "120138.002500", "120139.002500", "120140.002500", "120141.002500", "120142.002500", "120143.002500", "120144.002500", "120145.002500", "120146.002500", "120147.002500", "120148.002500", "120149.002500", "120150.002500", "120151.002500", "120152.002500", "120153.002500", "120154.002500", "120155.002500", "120156.002500", "120157.002500", "120158.002500", "120159.002500", "120200.002500", "120201.002500", "120202.002500", "120203.002500", "120204.002500", "120205.002500", "120206.002500", "120207.002500", "120208.002500", "120209.002500", "120210.002500", "120211.002500", "120212.002500", "120213.002500", "120214.002500", "120215.002500", "120216.002500", "120217.002500", "120218.002500", "120219.002500", "120220.002500", "120221.002500", "120222.002500", "120223.002500", "120224.002500", "120225.002500", "120226.002500", "120227.002500", "120228.002500", "120229.002500", "120230.002500", "120231.002500", "120232.002500", "120233.002500", "120234.002500", "120235.002500", "120236.002500", "120237.002500", "120238.002500", "120239.002500", "120240.002500", "120241.002500", "120242.002500", "120243.002500", "120244.002500", "120245.002500", "120246.002500", "120247.002500", "120248.002500", "120249.002500", "120250.002500", "120251.002500", "120252.002500", "120253.002500", "120254.002500", "120255.002500", "120256.002500", "120257.002500", "120258.002500", "120259.002500", "120300.002500", "120301.002500", "120302.002500", "120303.002500", "120304.002500", "120305.002500", "120306.002500", "120307.002500", "120308.002500", "120309.002500", "120310.002500", "120311.002500", "120312.002500", "120313.002500", "120314.002500", "120315.002500", "120316.002500", "120317.002500", "120318.002500", "120319.002500", "120320.002500", "120321.002500", "120322.002500", "120323.002500", "120324.002500", "120325.002500", "120326.002500", "120327.002500", "120328.002500", "120329.002500", "120330.002500", "120331.002500", "120332.002500", "120333.002500", "120334.002500", "120335.002500", "120336.002500", "120337.002500", "120338.002500", "120339.002500", "120340.002500", "120341.002500", "120342.002500", "120343.002500", "120344.002500", "120345.002500", "120346.002500", "120347.002500", "120348.002500", "120349.002500", "120350.002500", "120351.002500", "120352.002500", "120353.002500", "120354.002500", "120355.002500", "120356.002500", "120357.002500", "120358.002500", "120359.002500", "120400.002500", "120401.002500", "120402.002500", "120403.002500", "120404.002500", "120405.002500", "120406.002500", "120407.002500", "120408.002500", "120409.002500", "120410.002500", "120411.002500", "120412.002500", "120413.002500", "120414.002500", "120415.002500", "120416.002500", "120417.002500", "120418.002500", "120419.002500", "120420.002500", "120421.002500", "120422.002500", "120423.002500", "120424.002500", "120425.002500", "120426.002500", "120427.002500", "120428.002500", "120429.002500", "120430.002500", "120431.002500", "120432.002500", "120433.002500", "120434.002500", "120435.002500", "120436.002500", "120437.002500", "120438.002500", "120439.002500", "120440.002500", "120441.002500", "120442.002500", "120443.002500", "120444.002500", "120445.002500", "120446.002500", "120447.002500", "120448.002500", "120449.002500", "120450.002500", "120451.002500", "120452.002500", "120453.002500", "120454.002500", "120455.002500", "120456.002500", "120457.002500", "120458.002500", "120459.002500", "120500.002500", "120501.002500", "120502.002500", "120503.002500", "120504.002500", "120505.002500", "120506.002500", "120507.002500", "120508.002500", "120509.002500", "120510.002500", "120511.002500", "120512.002500", "120513.002500", "120514.002500", "120515.002500", "120516.002500", "120517.002500", "120518.002500", "120519.002500", "120520.002500", "120521.002500", "120522.002500", "120523.002500", "120524.002500", "120525.002500", "120526.002500", "120527.002500", "120528.002500", "120529.002500", "120530.002500", "120531.002500", "120532.002500", "120533.002500", "120534.002500", "120535.002500", "120536.002500", "120537.002500", "120538.002500", "120539.002500", "120540.002500", "120541.002500", "120542.002500", "120543.002500", "120544.002500", "120545.002500", "120546.002500", "120547.002500", "120548.002500", "120549.002500", "120550.002500", "120551.002500", "120552.002500", "120553.002500", "120554.002500", "120555.002500", "120556.002500", "120557.002500", "120558.002500", "120559.002500", "120600.002500", "120601.002500", "120602.002500", "120603.002500", "120604.002500", "120605.002500", "120606.002500", "120607.002500", "120608.002500", "120609.002500", "120610.002500", "120611.002500", "120612.002500", "120613.002500", "120614.002500", "120615.002500", "120616.002500", "120617.002500", "120618.002500", "120619.002500", "120620.002500", "120621.002500", "120622.002500", "120623.002500", "120624.002500", "120625.002500", "120626.002500", "120627.002500", "120628.002500", "120629.002500", "120630.002500", "120631.002500", "120632.002500", "120633.002500", "120634.002500", "120635.002500", "120636.002500", "120637.002500", "120638.002500", "120639.002500", "120640.002500", "120641.002500", "120642.002500", "120643.002500", "120644.002500", "120645.002500", "120646.002500", "120647.002500", "120648.002500", "120649.002500", "120650.002500", "120651.002500", "120652.002500", "120653.002500", "120654.002500", "120655.002500", "120656.002500", "120657.002500", "120658.002500", "120659.002500", "120700.002500", "120701.002500", "120702.002500", "120703.002500", "120704.002500", "120705.002500", "120706.002500", "120707.002500", "120708.002500", "120709.002500", "120710.002500", "120711.002500", "120712.002500", "120713.002500", "120714.002500", "120715.002500", "120716.002500", "120717.002500", "120718.002500", "120719.002500", "120720.002500", "120721.002500", "120722.002500", "120723.002500", "120724.002500", "120725.002500", "120726.002500", "120727.002500", "120728.002500", "120729.002500", "120730.002500", "120731.002500", "120732.002500", "120733.002500", "120734.002500", "120735.002500", "120736.002500", "120737.002500", "120738.002500", "120739.002500", "120740.002500", "120741.002500", "120742.002500", "120743.002500", "120744.002500", "120745.002500", "120746.002500", "120747.002500", "120748.002500", "120749.002500", "120750.002500", "120751.002500", "120752.002500", "120753.002500", "120754.002500", "120755.002500", "120756.002500", "120757.002500", "120758.002500", "120759.002500", "120800.002500", "120801.002500", "120802.002500", "120803.002500", "120804.002500", "120805.002500", "120806.002500", "120807.002500", "120808.002500", "120809.002500", "120810.002500", "120811.002500", "120812.002500", "120813.002500", "120814.002500", "120815.002500", "120816.002500", "120817.002500", "120818.002500", "120819.002500", "120820.002500", "120821.002500", "120822.002500", "120823.002500", "120824.002500", "120825.002500", "120826.002500", "120827.002500", "120828.002500", "120829.002500", "120830.002500", "120831.002500", "120832.002500", "120833.002500", "120834.002500", "120835.002500", "120836.002500", "120837.002500", "120838.002500", "120839.002500", "120840.002500", "120841.002500", "120842.002500", "120843.002500", "120844.002500", "120845.002500", "120846.002500", "120847.002500", "120848.002500", "120849.002500", "120850.002500", "120851.002500", "120852.002500", "120853.002500", "120854.002500", "120855.002500", "120856.002500", "120857.002500", "120858.002500", "120859.002500", "120900.002500", "120901.002500", "120902.002500", "120903.002500", "120904.002500", "120905.002500", "120906.002500", "120907.002500", "120908.002500", "120909.002500", "120910.002500", "120911.002500", "120912.002500", "120913.002500", "120914.002500", "120915.002500", "120916.002500", "120917.002500", "120918.002500", "120919.002500", "120920.002500", "120921.002500", "120922.002500", "120923.002500", "120924.002500", "120925.002500", "120926.002500", "120927.002500", "120928.002500", "120929.002500", "120930.002500", "120931.002500", "120932.002500", "120933.002500", "120934.002500", "120935.002500", "120936.002500", "120937.002500", "120938.002500", "120939.002500", "120940.002500", "120941.002500", "120942.002500", "120943.002500", "120944.002500", "120945.002500", "120946.002500", "120947.002500", "120948.002500", "120949.002500", "120950.002500", "120951.002500", "120952.002500", "120953.002500", "120954.002500", "120955.002500", "120956.002500", "120957.002500", "120958.002500", "120959.002500", "121000.002500", "121001.002500", "121002.002500", "121003.002500", "121004.002500", "121005.002500", "121006.002500", "121007.002500", "121008.002500", "121009.002500", "121010.002500", "121011.002500", "121012.002500", "121013.002500", "121014.002500"],
      "ContentTime": ["120018.528000", "120019.355000", "120020.358000", "120021.353000", "120022.346000", "120023.366000", "120024.327000", "120025.346000", "120026.352000", "120027.372000", "120028.337000", "120029.330000", "120030.342000", "120031.355000", "120032.392000", "120033.353000", "120034.348000", "120035.412000", "120036.384000", "120037.342000", "120038.336000", "120039.355000", "120040.364000", "120041.351000", "120042.336000", "120043.371000", "120044.346000", "120045.349000", "120046.340000", "120047.357000", "120048.390000", "120049.336000", "120050.366000", "120051.358000", "120052.344000", "120053.345000", "120054.338000", "120055.355000", "120056.304000", "120057.362000", "120058.353000", "120059.366000", "120100.342000", "120101.350000", "120102.370000", "120103.357000", "120104.361000", "120105.334000", "120106.319000", "120107.340000", "120108.349000", "120109.397000", "120110.386000", "120111.362000", "120112.370000", "120113.353000", "120114.331000", "120115.338000", "120116.372000", "120117.387000", "120118.358000", "120119.348000", "120120.335000", "120121.386000", "120122.383000", "120123.383000", "120124.351000", "120125.362000", "120126.360000", "120127.353000", "120128.333000", "120129.345000", "120130.394000", "120131.338000", "120132.319000", "120133.338000", "120134.347000", "120135.315000", "120136.334000", "120137.364000", "120138.359000", "120139.329000", "120140.349000", "120141.333000", "120142.322000", "120143.334000", "120144.354000", "120145.347000", "120146.364000", "120147.303000", "120148.332000", "120149.336000", "120150.323000", "120151.334000", "120152.327000", "120153.315000", "120154.323000", "120155.351000", "120156.323000", "120157.327000", "120158.379000", "120159.348000", "120200.336000", "120201.345000", "120202.335000", "120203.330000", "120204.362000", "120205.340000", "120206.316000", "120207.332000", "120208.332000", "120209.380000", "120210.358000", "120212.146000", "120213.059000", "120213.366000", "120214.328000", "120215.340000", "120216.346000", "120217.344000", "120218.363000", "120219.351000", "120220.325000", "120221.364000", "120222.338000", "120223.333000", "120224.330000", "120225.334000", "120226.335000", "120227.366000", "120228.331000", "120229.370000", "120230.348000", "120231.303000", "120232.355000", "120233.340000", "120234.337000", "120235.339000", "120236.352000", "120237.334000", "120238.316000", "120239.347000", "120240.343000", "120241.318000", "120242.359000", "120243.318000", "120244.337000", "120245.347000", "120246.366000", "120247.340000", "120248.340000", "120249.356000", "120250.334000", "120251.342000", "120252.333000", "120253.340000", "120254.335000", "120255.348000", "120256.394000", "120257.329000", "120258.354000", "120259.335000", "120300.321000", "120301.315000", "120302.338000", "120303.365000", "120304.325000", "120305.341000", "120306.330000", "120307.369000", "120308.333000", "120309.373000", "120310.334000", "120311.343000", "120312.346000", "120313.367000", "120314.338000", "120315.354000", "120316.340000", "120317.371000", "120318.401000", "120319.369000", "120320.348000", "120321.316000", "120322.332000", "120323.347000", "120324.378000", "120325.292000", "120326.347000", "120327.342000", "120328.345000", "120329.344000", "120330.340000", "120331.329000", "120332.341000", "120333.313000", "120334.346000", "120335.338000", "120336.314000", "120337.329000", "120338.344000", "120339.321000", "120340.327000", "120341.344000", "120342.303000", "120343.302000", "120344.347000", "120345.309000", "120346.305000", "120347.333000", "120348.333000", "120349.317000", "120350.390000", "120351.314000", "120352.318000", "120353.338000", "120354.328000", "120355.380000", "120356.343000", "120357.323000", "120358.333000", "120359.365000", "120400.335000", "120401.325000", "120402.347000", "120403.346000", "120404.309000", "120405.362000", "120406.319000", "120407.359000", "120408.350000", "120409.361000", "120410.327000", "120411.340000", "120412.323000", "120413.343000", "120414.320000", "120415.321000", "120416.326000", "120417.363000", "120418.346000", "120419.336000", "120420.344000", "120421.299000", "120422.339000", "120423.360000", "120424.331000", "120425.346000", "120426.344000", "120427.337000", "120428.326000", "120429.329000", "120430.344000", "120431.333000", "120432.329000", "120433.409000", "120434.330000", "120435.342000", "120436.348000", "120437.387000", "120438.362000", "120439.358000", "120440.371000", "120441.335000", "120442.348000", "120443.362000", "120444.359000", "120445.333000", "120446.343000", "120447.317000", "120448.338000", "120449.347000", "120450.333000", "120451.367000", "120452.418000", "120453.338000", "120454.326000", "120455.363000", "120456.349000", "120457.348000", "120458.388000", "120459.359000", "120500.373000", "120501.349000", "120502.369000", "120503.345000", "120504.350000", "120505.360000", "120506.341000", "120507.349000", "120508.361000", "120509.404000", "120510.383000", "120511.330000", "120512.335000", "120513.328000", "120514.349000", "120515.330000", "120516.340000", "120517.335000", "120518.335000", "120519.333000", "120520.338000", "120521.327000", "120522.339000", "120523.330000", "120524.330000", "120525.343000", "120526.313000", "120527.324000", "120528.313000", "120529.345000", "120530.318000", "120531.335000", "120532.363000", "120533.342000", "120534.342000", "120535.316000", "120536.328000", "120537.336000", "120538.341000", "120539.332000", "120540.320000", "120541.323000", "120542.322000", "120543.328000", "120544.351000", "120545.319000", "120546.322000", "120547.344000", "120548.332000", "120549.341000", "120550.390000", "120551.339000", "120552.342000", "120553.333000", "120554.354000", "120555.365000", "120556.347000", "120557.326000", "120558.339000", "120559.349000", "120600.342000", "120601.399000", "120602.413000", "120603.353000", "120604.349000", "120605.348000", "120606.377000", "120607.340000", "120608.302000", "120609.331000", "120610.341000", "120611.334000", "120612.337000", "120613.325000", "120614.376000", "120615.329000", "120616.330000", "120617.317000", "120618.335000", "120619.299000", "120620.340000", "120621.326000", "120622.375000", "120623.363000", "120624.337000", "120625.351000", "120626.347000", "120627.332000", "120628.358000", "120629.353000", "120630.328000", "120631.368000", "120632.409000", "120633.370000", "120634.345000", "120635.362000", "120636.341000", "120637.340000", "120638.369000", "120639.340000", "120640.348000", "120641.338000", "120642.345000", "120643.346000", "120644.383000", "120645.393000", "120646.315000", "120647.363000", "120648.358000", "120649.352000", "120650.366000", "120651.358000", "120652.371000", "120653.350000", "120654.371000", "120655.362000", "120656.339000", "120657.339000", "120658.395000", "120659.321000", "120700.347000", "120701.350000", "120702.313000", "120703.310000", "120704.331000", "120705.305000", "120706.334000", "120707.296000", "120708.350000", "120709.330000", "120710.368000", "120711.373000", "120712.396000", "120713.334000", "120714.346000", "120715.379000", "120716.357000", "120717.382000", "120718.343000", "120719.361000", "120720.335000", "120721.328000", "120722.367000", "120723.347000", "120724.308000", "120725.358000", "120726.347000", "120727.387000", "120728.365000", "120729.325000", "120730.346000", "120731.344000", "120732.325000", "120733.318000", "120734.363000", "120735.368000", "120736.340000", "120737.310000", "120738.360000", "120739.311000", "120740.337000", "120741.329000", "120742.342000", "120743.382000", "120744.324000", "120745.405000", "120746.354000", "120747.374000", "120748.299000", "120749.349000", "120750.346000", "120751.323000", "120752.336000", "120753.335000", "120754.319000", "120755.339000", "120756.334000", "120757.320000", "120758.328000", "120759.305000", "120800.349000", "120801.320000", "120802.381000", "120803.297000", "120804.349000", "120805.354000", "120806.364000", "120807.326000", "120808.390000", "120809.331000", "120810.324000", "120811.348000", "120812.346000", "120813.358000", "120814.309000", "120815.353000", "120816.342000", "120817.342000", "120818.350000", "120819.343000", "120820.303000", "120821.343000", "120822.293000", "120823.335000", "120824.354000", "120825.315000", "120826.315000", "120827.307000", "120828.332000", "120829.336000", "120830.293000", "120831.327000", "120832.364000", "120833.306000", "120834.354000", "120835.319000", "120836.326000", "120837.327000", "120838.339000", "120839.349000", "120840.388000", "120841.334000", "120842.346000", "120843.332000", "120844.337000", "120845.324000", "120846.362000", "120847.356000", "120848.351000", "120849.376000", "120850.331000", "120851.328000", "120852.351000", "120853.344000", "120854.340000", "120855.328000", "120856.352000", "120857.341000", "120858.334000", "120859.329000", "120900.360000", "120901.360000", "120902.345000", "120903.357000", "120904.342000", "120905.340000", "120906.339000", "120907.315000", "120908.343000", "120909.369000", "120910.353000", "120911.372000", "120912.276000", "120913.365000", "120914.351000", "120915.332000", "120916.326000", "120917.342000", "120918.338000", "120919.339000", "120920.324000", "120921.334000", "120922.333000", "120923.323000", "120924.367000", "120925.320000", "120926.322000", "120927.370000", "120928.359000", "120929.280000", "120930.335000", "120931.336000", "120932.329000", "120933.349000", "120934.317000", "120935.314000", "120936.315000", "120937.356000", "120938.320000", "120939.334000", "120940.315000", "120941.307000", "120942.319000", "120943.363000", "120944.341000", "120945.308000", "120946.339000", "120947.333000", "120948.307000", "120949.335000", "120950.333000", "120951.334000", "120952.363000", "120953.337000", "120954.325000", "120955.324000", "120956.343000", "120957.316000", "120958.327000", "120959.304000", "121000.319000", "121001.328000", "121002.345000", "121003.333000", "121004.326000", "121005.338000", "121006.394000", "121007.319000", "121008.325000", "121009.316000", "121010.336000", "121011.326000", "121012.331000", "121013.309000", "121014.324000", "121015.385000"],
