{
  "AcquisitionMatrixPE": 96,
  "AcquisitionNumber": 1,
  "AcquisitionTime": "12:11:2.607500",
  "BandwidthPerPixelPhaseEncode": 18.939,
  "BaseResolution": 96,
  "BodyPartExamined": "BRAIN",
  "ConsistencyInfo": "N4_VE11C_LATEST_20160120",
  "ConversionSoftware": "dcm2niix",
  "ConversionSoftwareVersion": "v1.0.20190902",
  "DerivedVendorReportedEchoSpacing": 0.000550011,
  "DeviceSerialNumber": "66112",
  "DwellTime": 2.2e-06,
  "EchoTime": 0.033,
  "EchoTrainLength": 96,
  "EffectiveEchoSpacing": 0.000550011,
  "FlipAngle": 59,
  "ImageOrientationPatientDICOM": [0.998774, -0.0273447, 0.041256, 0.0258049, 0.998967, 0.0374051],
  "ImageType": [
    "ORIGINAL",
    "PRIMARY",
    "FMRI",
    "NONE",
    "ND",
    "NORM",
    "MOSAIC"
],
  "ImagingFrequency": 123.252,
  "InPlanePhaseEncodingDirectionDICOM": "COL",
  "InstitutionAddress": "Maynard_3_Hanover_NH_US_03755",
  "InstitutionName": "Dartmouth_College_-_PBS",
  "InstitutionalDepartmentName": "Department",
  "MRAcquisitionType": "2D",
  "MagneticFieldStrength": 3,
  "Manufacturer": "Siemens",
  "ManufacturersModelName": "Prisma",
  "Modality": "MR",
  "MultibandAccelerationFactor": 4,
  "PartialFourier": 1,
  "PatientPosition": "HFS",
  "PercentPhaseFOV": 100,
  "PhaseEncodingDirection": "j-",
  "PhaseEncodingSteps": 96,
  "PhaseResolution": 1,
  "PixelBandwidth": 2365,
  "ProcedureStepDescription": "Gobbini_Matteo_1037_budapest",
  "ProtocolName": "func_run-02_task-movie",
  "PulseSequenceDetails": "%SiemensSeq%_ep2d_bold",
  "ReceiveCoilActiveElements": "HEA;HEP",
  "ReceiveCoilName": "Head_32",
  "ReconMatrixPE": 96,
  "RefLinesPE": 12,
  "RepetitionTime": 1,
  "SAR": 0.0454578,
  "ScanOptions": "FS",
  "ScanningSequence": "EP",
  "SequenceName": "_epfid2d1_96",
  "SequenceVariant": "SK",
  "SeriesDescription": "func_run-02_task-movie",
  "SeriesNumber": 15,
  "ShimSetting": [4155, -7695, -7412, 609, -63, -74, -47, 103],
  "SliceThickness": 2.5,
  "SliceTiming": [0.7325, 0, 0.4875, 0.08, 0.57, 0.1625, 0.6525, 0.325, 0.815, 0.4075, 0.8975, 0.245, 0.7325, 0, 0.4875, 0.08, 0.57, 0.1625, 0.6525, 0.325, 0.815, 0.4075, 0.8975, 0.245, 0.7325, 0, 0.4875, 0.08, 0.57, 0.1625, 0.6525, 0.325, 0.815, 0.4075, 0.8975, 0.245, 0.7325, 0, 0.4875, 0.08, 0.57, 0.1625, 0.6525, 0.325, 0.815, 0.4075, 0.8975, 0.245],
  "SoftwareVersions": "syngo_MR_E11",
  "SpacingBetweenSlices": 2.5,
  "StationName": "AWP66112",
  "TaskName": "movie",
  "TotalReadoutTime": 0.0522511,
  "TxRefAmp": 246.64,
  "dcmmeta_affine": [
    [-2.4969358444213867, 0.06451231241226196, 0.10559049993753433, 116.55382537841797],
    [0.06836183369159698, 2.497417449951172, 0.09073670953512192, -111.76786041259766],
    [0.1031399667263031, -0.09351284801959991, 2.4961204528808594, -87.36836242675781],
    [0.0, 0.0, 0.0, 1.0]
],
  "dcmmeta_reorient_transform": [
    [0.0, -1.0, 0.0, 95.0],
    [1.0, 0.0, 0.0, 0.0],
    [0.0, 0.0, 1.0, 0.0],
    [0.0, 0.0, 0.0, 1.0]
],
  "dcmmeta_shape": [96, 96, 48, 498],
  "dcmmeta_slice_dim": 2,
  "dcmmeta_version": 0.6,
  "global": {
    "const": {
      "AccessionNumber": "A001440",
      "AcquisitionMatrix": [96, 0, 0, 96],
      "AngioFlag": "N",
      "BitsAllocated": 16,
      "BitsStored": 12,
      "BodyPartExamined": "BRAIN",
      "Columns": 672,
      "EchoNumbers": 1,
      "EchoTime": 33.0,
      "EchoTrainLength": 96,
      "FlipAngle": 59.0,
      "HighBit": 11,
      "ImageOrientationPatient": [0.99877435349699, -0.027344732193, 0.04125598644999, 0.02580492547413, 0.99896694712368, 0.03740513835929],
      "ImagePositionPatient": [-860.37957276911, -825.05478376411, -152.88808898042],
      "ImageType": [
        "ORIGINAL",
        "PRIMARY",
        "FMRI",
        "NONE",
        "ND",
        "NORM",
        "MOSAIC"
],
      "ImagedNucleus": "1H",
      "ImagingFrequency": 123.252325,
      "InPlanePhaseEncodingDirection": "COL",
      "MRAcquisitionType": "2D",
      "MagneticFieldStrength": 3.0,
      "Manufacturer": "SIEMENS",
      "ManufacturerModelName": "Prisma",
      "Modality": "MR",
      "NumberOfAverages": 1.0,
      "NumberOfPhaseEncodingSteps": 96,
      "PercentPhaseFieldOfView": 100.0,
      "PercentSampling": 100.0,
      "PerformedProcedureStepStartTime": "112900.041000",
      "PhotometricInterpretation": "MONOCHROME2",
      "PixelBandwidth": 2365.0,
      "PixelRepresentation": 0,
      "PixelSpacing": [2.5, 2.5],
      "ProtocolName": "func_run-02_task-movie",
      "RepetitionTime": 1000.0,
      "Rows": 672,
      "SAR": 0.04545781165525,
      "SamplesPerPixel": 1,
      "ScanOptions": "FS",
      "ScanningSequence": "EP",
      "SequenceName": "*epfid2d1_96",
      "SequenceVariant": "SK",
      "SeriesDescription": "func_run-02_task-movie",
      "SeriesNumber": 15,
      "SeriesTime": "121103.707000",
      "SliceLocation": -86.366568901384,
      "SliceThickness": 2.5,
      "SmallestImagePixelValue": 0,
      "SoftwareVersions": "syngo MR E11",
      "SpacingBetweenSlices": 2.5000000047265,
      "SpecificCharacterSet": "ISO_IR 100",
      "StudyID": "3",
      "StudyTime": "112859.927000",
      "TransmitCoilName": "Body",
      "VariableFlipAngleFlag": "N",
      "WindowCenterWidthExplanation": "Algo1",
      "dBdt": 0.0},
    "slices": {}
  },
  "time": {
    "samples": {
      "AcquisitionNumber": [1, 2, 3, 4, 5, 6, 7, 8, 9, 10, 11, 12, 13, 14, 15, 16, 17, 18, 19, 20, 21, 22, 23, 24, 25, 26, 27, 28, 29, 30, 31, 32, 33, 34, 35, 36, 37, 38, 39, 40, 41, 42, 43, 44, 45, 46, 47, 48, 49, 50, 51, 52, 53, 54, 55, 56, 57, 58, 59, 60, 61, 62, 63, 64, 65, 66, 67, 68, 69, 70, 71, 72, 73, 74, 75, 76, 77, 78, 79, 80, 81, 82, 83, 84, 85, 86, 87, 88, 89, 90, 91, 92, 93, 94, 95, 96, 97, 98, 99, 100, 101, 102, 103, 104, 105, 106, 107, 108, 109, 110, 111, 112, 113, 114, 115, 116, 117, 118, 119, 120, 121, 122, 123, 124, 125, 126, 127, 128, 129, 130, 131, 132, 133, 134, 135, 136, 137, 138, 139, 140, 141, 142, 143, 144, 145, 146, 147, 148, 149, 150, 151, 152, 153, 154, 155, 156, 157, 158, 159, 160, 161, 162, 163, 164, 165, 166, 167, 168, 169, 170, 171, 172, 173, 174, 175, 176, 177, 178, 179, 180, 181, 182, 183, 184, 185, 186, 187, 188, 189, 190, 191, 192, 193, 194, 195, 196, 197, 198, 199, 200, 201, 202, 203, 204, 205, 206, 207, 208, 209, 210, 211, 212, 213, 214, 215, 216, 217, 218, 219, 220, 221, 222, 223, 224, 225, 226, 227, 228, 229, 230, 231, 232, 233, 234, 235, 236, 237, 238, 239, 240, 241, 242, 243, 244, 245, 246, 247, 248, 249, 250, 251, 252, 253, 254, 255, 256, 257, 258, 259, 260, 261, 262, 263, 264, 265, 266, 267, 268, 269, 270, 271, 272, 273, 274, 275, 276, 277, 278, 279, 280, 281, 282, 283, 284, 285, 286, 287, 288, 289, 290, 291, 292, 293, 294, 295, 296, 297, 298, 299, 300, 301, 302, 303, 304, 305, 306, 307, 308, 309, 310, 311, 312, 313, 314, 315, 316, 317, 318, 319, 320, 321, 322, 323, 324, 325, 326, 327, 328, 329, 330, 331, 332, 333, 334, 335, 336, 337, 338, 339, 340, 341, 342, 343, 344, 345, 346, 347, 348, 349, 350, 351, 352, 353, 354, 355, 356, 357, 358, 359, 360, 361, 362, 363, 364, 365, 366, 367, 368, 369, 370, 371, 372, 373, 374, 375, 376, 377, 378, 379, 380, 381, 382, 383, 384, 385, 386, 387, 388, 389, 390, 391, 392, 393, 394, 395, 396, 397, 398, 399, 400, 401, 402, 403, 404, 405, 406, 407, 408, 409, 410, 411, 412, 413, 414, 415, 416, 417, 418, 419, 420, 421, 422, 423, 424, 425, 426, 427, 428, 429, 430, 431, 432, 433, 434, 435, 436, 437, 438, 439, 440, 441, 442, 443, 444, 445, 446, 447, 448, 449, 450, 451, 452, 453, 454, 455, 456, 457, 458, 459, 460, 461, 462, 463, 464, 465, 466, 467, 468, 469, 470, 471, 472, 473, 474, 475, 476, 477, 478, 479, 480, 481, 482, 483, 484, 485, 486, 487, 488, 489, 490, 491, 492, 493, 494, 495, 496, 497, 498],
      "AcquisitionTime": ["121102.607500", "121103.607500", "121104.607500", "121105.607500", "121106.607500", "121107.607500", "121108.607500", "121109.607500", "121110.607500", "121111.607500", "121112.607500", "121113.607500", "121114.607500", "121115.607500", "121116.607500", "121117.607500", "121118.607500", "121119.607500", "121120.607500", "121121.607500", "121122.607500", "121123.607500", "121124.607500", "121125.607500", "121126.607500", "121127.607500", "121128.607500", "121129.607500", "121130.607500", "121131.607500", "121132.607500", "121133.607500", "121134.607500", "121135.607500", "121136.607500", "121137.607500", "121138.607500", "121139.607500", "121140.607500", "121141.607500", "121142.607500", "121143.607500", "121144.607500", "121145.607500", "121146.607500", "121147.607500", "121148.607500", "121149.607500", "121150.607500", "121151.607500", "121152.607500", "121153.607500", "121154.607500", "121155.607500", "121156.607500", "121157.607500", "121158.607500", "121159.607500", "121200.607500", "121201.607500", "121202.607500", "121203.607500", "121204.607500", "121205.607500", "121206.607500", "121207.607500", "121208.607500", "121209.607500", "121210.607500", "121211.607500", "121212.607500", "121213.607500", "121214.607500", "121215.607500", "121216.607500", "121217.607500", "121218.607500", "121219.607500", "121220.607500", "121221.607500", "121222.607500", "121223.607500", "121224.607500", "121225.607500", "121226.607500", "121227.607500", "121228.607500", "121229.607500", "121230.607500", "121231.607500", "121232.607500", "121233.607500", "121234.607500", "121235.607500", "121236.607500", "121237.607500", "121238.607500", "121239.607500", "121240.607500", "121241.607500", "121242.607500", "121243.607500", "121244.607500", "121245.607500", "121246.607500", "121247.607500", "121248.607500", "121249.607500", "121250.607500", "121251.607500", "121252.607500", "121253.607500", "121254.607500", "121255.607500", "121256.607500", "121257.607500", "121258.607500", "121259.607500", "121300.607500", "121301.607500", "121302.607500", "121303.607500", "121304.607500", "121305.607500", "121306.607500", "121307.607500", "121308.607500", "121309.607500", "121310.607500", "121311.607500", "121312.607500", "121313.607500", "121314.607500", "121315.607500", "121316.607500", "121317.607500", "121318.607500", "121319.607500", "121320.607500", "121321.607500", "121322.607500", "121323.607500", "121324.607500", "121325.607500", "121326.607500", "121327.607500", "121328.607500", "121329.607500", "121330.607500", "121331.607500", "121332.607500", "121333.607500", "121334.607500", "121335.607500", "121336.607500", "121337.607500", "121338.607500", "121339.607500", "121340.607500", "121341.607500", "121342.607500", "121343.607500", "121344.607500", "121345.607500", "121346.607500", "121347.607500", "121348.607500", "121349.607500", "121350.607500", "121351.607500", "121352.607500", "121353.607500", "121354.607500", "121355.607500", "121356.607500", "121357.607500", "121358.607500", "121359.607500", "121400.607500", "121401.607500", "121402.607500", "121403.607500", "121404.607500", "121405.607500", "121406.607500", "121407.607500", "121408.607500", "121409.607500", "121410.607500", "121411.607500", "121412.607500", "121413.607500", "121414.607500", "121415.607500", "121416.607500", "121417.607500", "121418.607500", "121419.607500", "121420.607500", "121421.607500", "121422.607500", "121423.607500", "121424.607500", "121425.607500", "121426.607500", "121427.607500", "121428.607500", "121429.607500", "121430.607500", "121431.607500", "121432.607500", "121433.607500", "121434.607500", "121435.607500", "121436.607500", "121437.607500", "121438.607500", "121439.607500", "121440.607500", "121441.607500", "121442.607500", "121443.607500", "121444.607500", "121445.607500", "121446.607500", "121447.607500", "121448.607500", "121449.607500", "121450.607500", "121451.607500", "121452.607500", "121453.607500", "121454.607500", "121455.607500", "121456.607500", "121457.607500", "121458.607500", "121459.607500", "121500.607500", "121501.607500", "121502.607500", "121503.607500", "121504.607500", "121505.607500", "121506.607500", "121507.607500", "121508.607500", "121509.607500", "121510.607500", "121511.607500", "121512.607500", "121513.607500", "121514.607500", "121515.607500", "121516.607500", "121517.607500", "121518.607500", "121519.607500", "121520.607500", "121521.607500", "121522.607500", "121523.607500", "121524.607500", "121525.607500", "121526.607500", "121527.607500", "121528.607500", "121529.607500", "121530.607500", "121531.607500", "121532.607500", "121533.607500", "121534.607500", "121535.607500", "121536.607500", "121537.607500", "121538.607500", "121539.607500", "121540.607500", "121541.607500", "121542.607500", "121543.607500", "121544.607500", "121545.607500", "121546.607500", "121547.607500", "121548.607500", "121549.607500", "121550.607500", "121551.607500", "121552.607500", "121553.607500", "121554.607500", "121555.607500", "121556.607500", "121557.607500", "121558.607500", "121559.607500", "121600.607500", "121601.607500", "121602.607500", "121603.607500", "121604.607500", "121605.607500", "121606.607500", "121607.607500", "121608.607500", "121609.607500", "121610.607500", "121611.607500", "121612.607500", "121613.607500", "121614.607500", "121615.607500", "121616.607500", "121617.607500", "121618.607500", "121619.607500", "121620.607500", "121621.607500", "121622.607500", "121623.607500", "121624.607500", "121625.607500", "121626.607500", "121627.607500", "121628.607500", "121629.607500", "121630.607500", "121631.607500", "121632.607500", "121633.607500", "121634.607500", "121635.607500", "121636.607500", "121637.607500", "121638.607500", "121639.607500", "121640.607500", "121641.607500", "121642.607500", "121643.607500", "121644.607500", "121645.607500", "121646.607500", "121647.607500", "121648.607500", "121649.607500", "121650.607500", "121651.607500", "121652.607500", "121653.607500", "121654.607500", "121655.607500", "121656.607500", "121657.607500", "121658.607500", "121659.607500", "121700.607500", "121701.607500", "121702.607500", "121703.607500", "121704.607500", "121705.607500", "121706.607500", "121707.607500", "121708.607500", "121709.607500", "121710.607500", "121711.607500", "121712.607500", "121713.607500", "121714.607500", "121715.607500", "121716.607500", "121717.607500", "121718.607500", "121719.607500", "121720.607500", "121721.607500", "121722.607500", "121723.607500", "121724.607500", "121725.607500", "121726.607500", "121727.607500", "121728.607500", "121729.607500", "121730.607500", "121731.607500", "121732.607500", "121733.607500", "121734.607500", "121735.607500", "121736.607500", "121737.607500", "121738.607500", "121739.607500", "121740.607500", "121741.607500", "121742.607500", "121743.607500", "121744.607500", "121745.607500", "121746.607500", "121747.607500", "121748.607500", "121749.607500", "121750.607500", "121751.607500", "121752.607500", "121753.607500", "121754.607500", "121755.607500", "121756.607500", "121757.607500", "121758.607500", "121759.607500", "121800.607500", "121801.607500", "121802.607500", "121803.607500", "121804.607500", "121805.607500", "121806.607500", "121807.607500", "121808.607500", "121809.607500", "121810.607500", "121811.607500", "121812.607500", "121813.607500", "121814.607500", "121815.607500", "121816.607500", "121817.607500", "121818.607500", "121819.607500", "121820.607500", "121821.607500", "121822.607500", "121823.607500", "121824.607500", "121825.607500", "121826.607500", "121827.607500", "121828.607500", "121829.607500", "121830.607500", "121831.607500", "121832.607500", "121833.607500", "121834.607500", "121835.607500", "121836.607500", "121837.607500", "121838.607500", "121839.607500", "121840.607500", "121841.607500", "121842.607500", "121843.607500", "121844.607500", "121845.607500", "121846.607500", "121847.607500", "121848.607500", "121849.607500", "121850.607500", "121851.607500", "121852.607500", "121853.607500", "121854.607500", "121855.607500", "121856.607500", "121857.607500", "121858.607500", "121859.607500", "121900.607500", "121901.607500", "121902.607500", "121903.607500", "121904.607500", "121905.607500", "121906.607500", "121907.607500", "121908.607500", "121909.607500", "121910.607500", "121911.607500", "121912.607500", "121913.607500", "121914.607500", "121915.607500", "121916.607500", "121917.607500", "121918.607500", "121919.607500"],
      "ContentTime": ["121103.719000", "121104.581000", "121105.550000", "121106.562000", "121107.578000", "121108.564000", "121109.535000", "121110.571000", "121111.569000", "121112.550000", "121113.557000", "121114.563000", "121115.571000", "121116.583000", "121117.578000", "121118.559000", "121119.554000", "121120.568000", "121121.595000", "121122.575000", "121123.590000", "121124.561000", "121125.545000", "121126.563000", "121127.561000", "121128.536000", "121129.548000", "121130.532000", "121131.524000", "121132.548000", "121133.543000", "121134.529000", "121135.540000", "121136.529000", "121137.559000", "121138.543000", "121139.572000", "121140.543000", "121141.553000", "121142.574000", "121143.562000", "121144.538000", "121145.520000", "121146.567000", "121147.594000", "121148.530000", "121149.555000", "121150.544000", "121151.624000", "121152.554000", "121153.545000", "121154.554000", "121155.544000", "121156.533000", "121157.551000", "121158.547000", "121159.537000", "121200.554000", "121201.557000", "121202.560000", "121203.554000", "121204.530000", "121205.547000", "121206.548000", "121207.573000", "121208.557000", "121209.551000", "121210.550000", "121211.570000", "121212.566000", "121213.554000", "121214.565000", "121215.567000", "121216.572000", "121217.559000", "121218.571000", "121219.554000", "121220.549000", "121221.578000", "121222.547000", "121223.560000", "121224.559000", "121225.557000", "121226.541000", "121227.578000", "121228.533000", "121229.547000", "121230.540000", "121231.553000", "121232.558000", "121233.548000", "121234.558000", "121235.547000", "121236.556000", "121237.597000", "121238.525000", "121239.539000", "121240.568000", "121241.552000", "121242.546000", "121243.621000", "121244.594000", "121245.574000", "121246.640000", "121247.628000", "121248.569000", "121249.560000", "121250.560000", "121251.521000", "121252.559000", "121253.561000", "121254.609000", "121255.530000", "121256.535000", "121257.553000", "121258.579000", "121259.578000", "121300.562000", "121301.572000", "121302.554000", "121303.562000", "121304.543000", "121305.597000", "121306.533000", "121307.529000", "121308.569000", "121309.558000", "121310.530000", "121311.532000", "121312.567000", "121313.579000", "121314.538000", "121315.540000", "121316.549000", "121317.596000", "121318.555000", "121319.542000", "121320.545000", "121321.558000", "121322.556000", "121323.584000", "121324.563000", "121325.574000", "121326.549000", "121327.568000", "121328.561000", "121329.551000", "121330.519000", "121331.545000", "121332.538000", "121333.586000", "121334.560000", "121335.563000", "121336.597000", "121337.517000", "121338.577000", "121339.580000", "121340.532000", "121341.601000", "121342.573000", "121343.571000", "121344.557000", "121345.604000", "121346.593000", "121347.550000", "121348.577000", "121349.566000", "121350.565000", "121351.550000", "121352.548000", "121353.514000", "121354.558000", "121355.538000", "121356.550000", "121357.559000", "121358.567000", "121359.555000", "121400.529000", "121401.573000", "121402.554000", "121403.553000", "121404.551000", "121405.548000", "121406.574000", "121407.603000", "121408.564000", "121409.553000", "121410.639000", "121411.602000", "121412.560000", "121413.565000", "121414.574000", "121415.575000", "121416.562000", "121417.543000", "121418.550000", "121419.563000", "121420.524000", "121421.537000", "121422.550000", "121423.611000", "121424.558000", "121425.575000", "121426.557000", "121427.538000", "121428.547000", "121429.537000", "121430.597000", "121431.540000", "121432.552000", "121433.582000", "121434.561000", "121435.543000", "121436.551000", "121437.561000", "121438.577000", "121439.556000", "121440.554000", "121441.545000", "121442.551000", "121443.562000", "121444.551000", "121445.567000", "121446.538000", "121447.559000", "121448.530000", "121449.535000", "121450.556000", "121451.579000", "121452.526000", "121453.584000", "121454.595000", "121455.537000", "121456.571000", "121457.553000", "121458.588000", "121459.565000", "121500.561000", "121501.546000", "121502.545000", "121503.601000", "121504.565000", "121505.591000", "121506.560000", "121507.561000", "121508.552000", "121509.560000", "121510.569000", "121511.577000", "121512.585000", "121513.554000", "121514.590000", "121515.567000", "121516.577000", "121517.552000", "121518.544000", "121519.573000", "121520.544000", "121521.595000", "121522.578000", "121523.574000", "121524.579000", "121525.536000", "121526.551000", "121527.528000", "121528.510000", "121529.552000", "121530.543000", "121531.573000", "121532.547000", "121533.577000", "121534.565000", "121535.548000", "121536.563000", "121537.578000", "121538.579000", "121539.586000", "121540.532000", "121541.541000", "121542.600000", "121543.545000", "121544.545000", "121545.541000", "121546.568000", "121547.558000", "121548.573000", "121549.551000", "121550.583000", "121551.586000", "121552.533000", "121553.588000", "121554.554000", "121555.566000", "121556.597000", "121557.586000", "121558.557000", "121559.553000", "121600.586000", "121601.539000", "121602.603000", "121603.609000", "121604.564000", "121605.626000", "121606.560000", "121607.583000", "121608.559000", "121609.550000", "121610.576000", "121611.556000", "121612.572000", "121613.547000", "121614.556000", "121615.611000", "121616.562000", "121617.580000", "121618.574000", "121619.543000", "121620.567000", "121621.543000", "121622.547000", "121623.575000", "121624.569000", "121625.562000", "121626.576000", "121627.541000", "121628.565000", "121629.547000", "121630.558000", "121631.569000", "121632.549000", "121633.582000", "121634.560000", "121635.539000", "121636.514000", "121637.539000", "121638.545000", "121639.566000", "121640.550000", "121641.549000", "121642.547000", "121643.547000", "121644.565000", "121645.550000", "121646.554000", "121647.578000", "121648.563000", "121649.532000", "121650.561000", "121651.579000", "121652.540000", "121653.575000", "121654.536000", "121655.532000", "121656.534000", "121657.525000", "121658.603000", "121659.593000", "121700.533000", "121701.562000", "121702.563000", "121703.552000", "121704.537000", "121705.553000", "121706.551000", "121707.553000", "121708.536000", "121709.554000", "121710.566000", "121711.577000", "121712.535000", "121713.546000", "121714.556000", "121715.574000", "121716.534000", "121717.519000", "121718.537000", "121719.547000", "121720.536000", "121721.541000", "121722.530000", "121723.574000", "121724.587000", "121725.544000", "121726.555000", "121727.522000", "121728.632000", "121729.559000", "121730.539000", "121731.549000", "121732.539000", "121733.540000", "121734.527000", "121735.582000", "121736.568000", "121737.547000", "121738.551000", "121739.545000", "121740.562000", "121741.548000", "121742.545000", "121743.580000", "121744.557000", "121745.562000", "121746.538000", "121747.536000", "121748.560000", "121749.538000", "121750.589000", "121751.536000", "121752.584000", "121753.585000", "121754.560000", "121755.577000", "121756.593000", "121757.544000", "121758.541000", "121759.531000", "121800.542000", "121801.566000", "121802.522000", "121803.557000", "121804.588000", "121805.548000", "121806.595000", "121807.544000", "121808.553000", "121809.560000", "121810.554000", "121811.587000", "121812.570000", "121813.543000", "121814.548000", "121815.533000", "121816.553000", "121817.532000", "121818.540000", "121819.553000", "121820.549000", "121821.592000", "121822.570000", "121823.537000", "121824.553000", "121825.549000", "121826.560000", "121827.550000", "121828.542000", "121829.548000", "121830.514000", "121831.549000", "121832.572000", "121833.562000", "121834.547000", "121835.552000", "121836.613000", "121837.558000", "121838.545000", "121839.564000", "121840.543000", "121841.538000", "121842.555000", "121843.524000", "121844.559000", "121845.570000", "121846.553000", "121847.550000", "121848.620000", "121849.535000", "121850.529000", "121851.540000", "121852.550000", "121853.536000", "121854.582000", "121855.522000", "121856.539000", "121857.562000", "121858.608000", "121859.524000", "121900.551000", "121901.528000", "121902.584000", "121903.523000", "121904.534000", "121905.547000", "121906.564000", "121907.515000", "121908.557000", "121909.523000", "121910.558000", "121911.519000", "121912.585000", "121913.581000", "121914.542000", "121915.543000", "121916.501000", "121917.546000", "121918.585000", "121919.546000", "121920.572000"],
