{
  "AcquisitionMatrixPE": 96,
  "AcquisitionNumber": 1,
  "AcquisitionTime": "12:19:49.517500",
  "BandwidthPerPixelPhaseEncode": 18.939,
  "BaseResolution": 96,
  "BodyPartExamined": "BRAIN",
  "ConsistencyInfo": "N4_VE11C_LATEST_20160120",
  "ConversionSoftware": "dcm2niix",
  "ConversionSoftwareVersion": "v1.0.20190902",
  "DerivedVendorReportedEchoSpacing": 0.000550011,
  "DeviceSerialNumber": "66112",
  "DwellTime": 2.2e-06,
  "EchoTime": 0.033,
  "EchoTrainLength": 96,
  "EffectiveEchoSpacing": 0.000550011,
  "FlipAngle": 59,
  "ImageOrientationPatientDICOM": [0.998774, -0.0273447, 0.041256, 0.0258049, 0.998967, 0.0374051],
  "ImageType": [
    "ORIGINAL",
    "PRIMARY",
    "FMRI",
    "NONE",
    "ND",
    "NORM",
    "MOSAIC"
],
  "ImagingFrequency": 123.252,
  "InPlanePhaseEncodingDirectionDICOM": "COL",
  "InstitutionAddress": "Maynard_3_Hanover_NH_US_03755",
  "InstitutionName": "Dartmouth_College_-_PBS",
  "InstitutionalDepartmentName": "Department",
  "MRAcquisitionType": "2D",
  "MagneticFieldStrength": 3,
  "Manufacturer": "Siemens",
  "ManufacturersModelName": "Prisma",
  "Modality": "MR",
  "MultibandAccelerationFactor": 4,
  "PartialFourier": 1,
  "PatientPosition": "HFS",
  "PercentPhaseFOV": 100,
  "PhaseEncodingDirection": "j-",
  "PhaseEncodingSteps": 96,
  "PhaseResolution": 1,
  "PixelBandwidth": 2365,
  "ProcedureStepDescription": "Gobbini_Matteo_1037_budapest",
  "ProtocolName": "func_run-03_task-movie",
  "PulseSequenceDetails": "%SiemensSeq%_ep2d_bold",
  "ReceiveCoilActiveElements": "HEA;HEP",
  "ReceiveCoilName": "Head_32",
  "ReconMatrixPE": 96,
  "RefLinesPE": 12,
  "RepetitionTime": 1,
  "SAR": 0.0454781,
  "ScanOptions": "FS",
  "ScanningSequence": "EP",
  "SequenceName": "_epfid2d1_96",
  "SequenceVariant": "SK",
  "SeriesDescription": "func_run-03_task-movie",
  "SeriesNumber": 22,
  "ShimSetting": [4155, -7695, -7412, 609, -63, -74, -47, 103],
  "SliceThickness": 2.5,
  "SliceTiming": [0.735, 0, 0.49, 0.08, 0.57, 0.1625, 0.6525, 0.325, 0.815, 0.4075, 0.8975, 0.245, 0.735, 0, 0.49, 0.08, 0.57, 0.1625, 0.6525, 0.325, 0.815, 0.4075, 0.8975, 0.245, 0.735, 0, 0.49, 0.08, 0.57, 0.1625, 0.6525, 0.325, 0.815, 0.4075, 0.8975, 0.245, 0.735, 0, 0.49, 0.08, 0.57, 0.1625, 0.6525, 0.325, 0.815, 0.4075, 0.8975, 0.245],
  "SoftwareVersions": "syngo_MR_E11",
  "SpacingBetweenSlices": 2.5,
  "StationName": "AWP66112",
  "TaskName": "movie",
  "TotalReadoutTime": 0.0522511,
  "TxRefAmp": 246.64,
  "dcmmeta_affine": [
    [-2.4969358444213867, 0.06451231241226196, 0.10559049993753433, 116.55382537841797],
    [0.06836183369159698, 2.497417449951172, 0.09073670953512192, -111.76786041259766],
    [0.1031399667263031, -0.09351284801959991, 2.4961204528808594, -87.36836242675781],
    [0.0, 0.0, 0.0, 1.0]
],
  "dcmmeta_reorient_transform": [
    [0.0, -1.0, 0.0, 95.0],
    [1.0, 0.0, 0.0, 0.0],
    [0.0, 0.0, 1.0, 0.0],
    [0.0, 0.0, 0.0, 1.0]
],
  "dcmmeta_shape": [96, 96, 48, 535],
  "dcmmeta_slice_dim": 2,
  "dcmmeta_version": 0.6,
  "global": {
    "const": {
      "AccessionNumber": "A001440",
      "AcquisitionMatrix": [96, 0, 0, 96],
      "AngioFlag": "N",
      "BitsAllocated": 16,
      "BitsStored": 12,
      "BodyPartExamined": "BRAIN",
      "Columns": 672,
      "EchoNumbers": 1,
      "EchoTime": 33.0,
      "EchoTrainLength": 96,
      "FlipAngle": 59.0,
      "HighBit": 11,
      "ImageOrientationPatient": [0.99877435349699, -0.027344732193, 0.04125598644999, 0.02580492547413, 0.99896694712368, 0.03740513835929],
      "ImagePositionPatient": [-860.37957276911, -825.05478376411, -152.88808898042],
      "ImageType": [
        "ORIGINAL",
        "PRIMARY",
        "FMRI",
        "NONE",
        "ND",
        "NORM",
        "MOSAIC"
],
      "ImagedNucleus": "1H",
      "ImagingFrequency": 123.252329,
      "InPlanePhaseEncodingDirection": "COL",
      "MRAcquisitionType": "2D",
      "MagneticFieldStrength": 3.0,
      "Manufacturer": "SIEMENS",
      "ManufacturerModelName": "Prisma",
      "Modality": "MR",
      "NumberOfAverages": 1.0,
      "NumberOfPhaseEncodingSteps": 96,
      "PercentPhaseFieldOfView": 100.0,
      "PercentSampling": 100.0,
      "PerformedProcedureStepStartTime": "112900.041000",
      "PhotometricInterpretation": "MONOCHROME2",
      "PixelBandwidth": 2365.0,
      "PixelRepresentation": 0,
      "PixelSpacing": [2.5, 2.5],
      "ProtocolName": "func_run-03_task-movie",
      "RepetitionTime": 1000.0,
      "Rows": 672,
      "SAR": 0.04547813056579,
      "SamplesPerPixel": 1,
      "ScanOptions": "FS",
      "ScanningSequence": "EP",
      "SequenceName": "*epfid2d1_96",
      "SequenceVariant": "SK",
      "SeriesDescription": "func_run-03_task-movie",
      "SeriesNumber": 22,
      "SeriesTime": "121950.885000",
      "SliceLocation": -86.366568901384,
      "SliceThickness": 2.5,
      "SmallestImagePixelValue": 0,
      "SoftwareVersions": "syngo MR E11",
      "SpacingBetweenSlices": 2.5000000047265,
      "SpecificCharacterSet": "ISO_IR 100",
      "StudyID": "3",
      "StudyTime": "112859.927000",
      "TransmitCoilName": "Body",
      "VariableFlipAngleFlag": "N",
      "WindowCenterWidthExplanation": "Algo1",
      "dBdt": 0.0},
    "slices": {}
  },
  "time": {
    "samples": {
      "AcquisitionNumber": [1, 2, 3, 4, 5, 6, 7, 8, 9, 10, 11, 12, 13, 14, 15, 16, 17, 18, 19, 20, 21, 22, 23, 24, 25, 26, 27, 28, 29, 30, 31, 32, 33, 34, 35, 36, 37, 38, 39, 40, 41, 42, 43, 44, 45, 46, 47, 48, 49, 50, 51, 52, 53, 54, 55, 56, 57, 58, 59, 60, 61, 62, 63, 64, 65, 66, 67, 68, 69, 70, 71, 72, 73, 74, 75, 76, 77, 78, 79, 80, 81, 82, 83, 84, 85, 86, 87, 88, 89, 90, 91, 92, 93, 94, 95, 96, 97, 98, 99, 100, 101, 102, 103, 104, 105, 106, 107, 108, 109, 110, 111, 112, 113, 114, 115, 116, 117, 118, 119, 120, 121, 122, 123, 124, 125, 126, 127, 128, 129, 130, 131, 132, 133, 134, 135, 136, 137, 138, 139, 140, 141, 142, 143, 144, 145, 146, 147, 148, 149, 150, 151, 152, 153, 154, 155, 156, 157, 158, 159, 160, 161, 162, 163, 164, 165, 166, 167, 168, 169, 170, 171, 172, 173, 174, 175, 176, 177, 178, 179, 180, 181, 182, 183, 184, 185, 186, 187, 188, 189, 190, 191, 192, 193, 194, 195, 196, 197, 198, 199, 200, 201, 202, 203, 204, 205, 206, 207, 208, 209, 210, 211, 212, 213, 214, 215, 216, 217, 218, 219, 220, 221, 222, 223, 224, 225, 226, 227, 228, 229, 230, 231, 232, 233, 234, 235, 236, 237, 238, 239, 240, 241, 242, 243, 244, 245, 246, 247, 248, 249, 250, 251, 252, 253, 254, 255, 256, 257, 258, 259, 260, 261, 262, 263, 264, 265, 266, 267, 268, 269, 270, 271, 272, 273, 274, 275, 276, 277, 278, 279, 280, 281, 282, 283, 284, 285, 286, 287, 288, 289, 290, 291, 292, 293, 294, 295, 296, 297, 298, 299, 300, 301, 302, 303, 304, 305, 306, 307, 308, 309, 310, 311, 312, 313, 314, 315, 316, 317, 318, 319, 320, 321, 322, 323, 324, 325, 326, 327, 328, 329, 330, 331, 332, 333, 334, 335, 336, 337, 338, 339, 340, 341, 342, 343, 344, 345, 346, 347, 348, 349, 350, 351, 352, 353, 354, 355, 356, 357, 358, 359, 360, 361, 362, 363, 364, 365, 366, 367, 368, 369, 370, 371, 372, 373, 374, 375, 376, 377, 378, 379, 380, 381, 382, 383, 384, 385, 386, 387, 388, 389, 390, 391, 392, 393, 394, 395, 396, 397, 398, 399, 400, 401, 402, 403, 404, 405, 406, 407, 408, 409, 410, 411, 412, 413, 414, 415, 416, 417, 418, 419, 420, 421, 422, 423, 424, 425, 426, 427, 428, 429, 430, 431, 432, 433, 434, 435, 436, 437, 438, 439, 440, 441, 442, 443, 444, 445, 446, 447, 448, 449, 450, 451, 452, 453, 454, 455, 456, 457, 458, 459, 460, 461, 462, 463, 464, 465, 466, 467, 468, 469, 470, 471, 472, 473, 474, 475, 476, 477, 478, 479, 480, 481, 482, 483, 484, 485, 486, 487, 488, 489, 490, 491, 492, 493, 494, 495, 496, 497, 498, 499, 500, 501, 502, 503, 504, 505, 506, 507, 508, 509, 510, 511, 512, 513, 514, 515, 516, 517, 518, 519, 520, 521, 522, 523, 524, 525, 526, 527, 528, 529, 530, 531, 532, 533, 534, 535],
      "AcquisitionTime": ["121949.517500", "121950.517500", "121951.517500", "121952.517500", "121953.517500", "121954.517500", "121955.517500", "121956.517500", "121957.517500", "121958.517500", "121959.517500", "122000.517500", "122001.517500", "122002.517500", "122003.517500", "122004.517500", "122005.517500", "122006.517500", "122007.517500", "122008.517500", "122009.517500", "122010.517500", "122011.517500", "122012.517500", "122013.517500", "122014.517500", "122015.517500", "122016.517500", "122017.517500", "122018.517500", "122019.517500", "122020.517500", "122021.517500", "122022.517500", "122023.517500", "122024.517500", "122025.517500", "122026.517500", "122027.517500", "122028.517500", "122029.517500", "122030.517500", "122031.517500", "122032.517500", "122033.517500", "122034.517500", "122035.517500", "122036.517500", "122037.517500", "122038.517500", "122039.517500", "122040.517500", "122041.517500", "122042.517500", "122043.517500", "122044.517500", "122045.517500", "122046.517500", "122047.517500", "122048.517500", "122049.517500", "122050.517500", "122051.517500", "122052.517500", "122053.517500", "122054.517500", "122055.517500", "122056.517500", "122057.517500", "122058.517500", "122059.517500", "122100.517500", "122101.517500", "122102.517500", "122103.517500", "122104.517500", "122105.517500", "122106.517500", "122107.517500", "122108.517500", "122109.517500", "122110.517500", "122111.517500", "122112.517500", "122113.517500", "122114.517500", "122115.517500", "122116.517500", "122117.517500", "122118.517500", "122119.517500", "122120.517500", "122121.517500", "122122.517500", "122123.517500", "122124.517500", "122125.517500", "122126.517500", "122127.517500", "122128.517500", "122129.517500", "122130.517500", "122131.517500", "122132.517500", "122133.517500", "122134.517500", "122135.517500", "122136.517500", "122137.517500", "122138.517500", "122139.517500", "122140.517500", "122141.517500", "122142.517500", "122143.517500", "122144.517500", "122145.517500", "122146.517500", "122147.517500", "122148.517500", "122149.517500", "122150.517500", "122151.517500", "122152.517500", "122153.517500", "122154.517500", "122155.517500", "122156.517500", "122157.517500", "122158.517500", "122159.517500", "122200.517500", "122201.517500", "122202.517500", "122203.517500", "122204.517500", "122205.517500", "122206.517500", "122207.517500", "122208.517500", "122209.517500", "122210.517500", "122211.517500", "122212.517500", "122213.517500", "122214.517500", "122215.517500", "122216.517500", "122217.517500", "122218.517500", "122219.517500", "122220.517500", "122221.517500", "122222.517500", "122223.517500", "122224.517500", "122225.517500", "122226.517500", "122227.517500", "122228.517500", "122229.517500", "122230.517500", "122231.517500", "122232.517500", "122233.517500", "122234.517500", "122235.517500", "122236.517500", "122237.517500", "122238.517500", "122239.517500", "122240.517500", "122241.517500", "122242.517500", "122243.517500", "122244.517500", "122245.517500", "122246.517500", "122247.517500", "122248.517500", "122249.517500", "122250.517500", "122251.517500", "122252.517500", "122253.517500", "122254.517500", "122255.517500", "122256.517500", "122257.517500", "122258.517500", "122259.517500", "122300.517500", "122301.517500", "122302.517500", "122303.517500", "122304.517500", "122305.517500", "122306.517500", "122307.517500", "122308.517500", "122309.517500", "122310.517500", "122311.517500", "122312.517500", "122313.517500", "122314.517500", "122315.517500", "122316.517500", "122317.517500", "122318.517500", "122319.517500", "122320.517500", "122321.517500", "122322.517500", "122323.517500", "122324.517500", "122325.517500", "122326.517500", "122327.517500", "122328.517500", "122329.517500", "122330.517500", "122331.517500", "122332.517500", "122333.517500", "122334.517500", "122335.517500", "122336.517500", "122337.517500", "122338.517500", "122339.517500", "122340.517500", "122341.517500", "122342.517500", "122343.517500", "122344.517500", "122345.517500", "122346.517500", "122347.517500", "122348.517500", "122349.517500", "122350.517500", "122351.517500", "122352.517500", "122353.517500", "122354.517500", "122355.517500", "122356.517500", "122357.517500", "122358.517500", "122359.517500", "122400.517500", "122401.517500", "122402.517500", "122403.517500", "122404.517500", "122405.517500", "122406.517500", "122407.517500", "122408.517500", "122409.517500", "122410.517500", "122411.517500", "122412.517500", "122413.517500", "122414.517500", "122415.517500", "122416.517500", "122417.517500", "122418.517500", "122419.517500", "122420.517500", "122421.517500", "122422.517500", "122423.517500", "122424.517500", "122425.517500", "122426.517500", "122427.517500", "122428.517500", "122429.517500", "122430.517500", "122431.517500", "122432.517500", "122433.517500", "122434.517500", "122435.517500", "122436.517500", "122437.517500", "122438.517500", "122439.517500", "122440.517500", "122441.517500", "122442.517500", "122443.517500", "122444.517500", "122445.517500", "122446.517500", "122447.517500", "122448.517500", "122449.517500", "122450.517500", "122451.517500", "122452.517500", "122453.517500", "122454.517500", "122455.517500", "122456.517500", "122457.517500", "122458.517500", "122459.517500", "122500.517500", "122501.517500", "122502.517500", "122503.517500", "122504.517500", "122505.517500", "122506.517500", "122507.517500", "122508.517500", "122509.517500", "122510.517500", "122511.517500", "122512.517500", "122513.517500", "122514.517500", "122515.517500", "122516.517500", "122517.517500", "122518.517500", "122519.517500", "122520.517500", "122521.517500", "122522.517500", "122523.517500", "122524.517500", "122525.517500", "122526.517500", "122527.517500", "122528.517500", "122529.517500", "122530.517500", "122531.517500", "122532.517500", "122533.517500", "122534.517500", "122535.517500", "122536.517500", "122537.517500", "122538.517500", "122539.517500", "122540.517500", "122541.517500", "122542.517500", "122543.517500", "122544.517500", "122545.517500", "122546.517500", "122547.517500", "122548.517500", "122549.517500", "122550.517500", "122551.517500", "122552.517500", "122553.517500", "122554.517500", "122555.517500", "122556.517500", "122557.517500", "122558.517500", "122559.517500", "122600.517500", "122601.517500", "122602.517500", "122603.517500", "122604.517500", "122605.517500", "122606.517500", "122607.517500", "122608.517500", "122609.517500", "122610.517500", "122611.517500", "122612.517500", "122613.517500", "122614.517500", "122615.517500", "122616.517500", "122617.517500", "122618.517500", "122619.517500", "122620.517500", "122621.517500", "122622.517500", "122623.517500", "122624.517500", "122625.517500", "122626.517500", "122627.517500", "122628.517500", "122629.517500", "122630.517500", "122631.517500", "122632.517500", "122633.517500", "122634.517500", "122635.517500", "122636.517500", "122637.517500", "122638.517500", "122639.517500", "122640.517500", "122641.517500", "122642.517500", "122643.517500", "122644.517500", "122645.517500", "122646.517500", "122647.517500", "122648.517500", "122649.517500", "122650.517500", "122651.517500", "122652.517500", "122653.517500", "122654.517500", "122655.517500", "122656.517500", "122657.517500", "122658.517500", "122659.517500", "122700.517500", "122701.517500", "122702.517500", "122703.517500", "122704.517500", "122705.517500", "122706.517500", "122707.517500", "122708.517500", "122709.517500", "122710.517500", "122711.517500", "122712.517500", "122713.517500", "122714.517500", "122715.517500", "122716.517500", "122717.517500", "122718.517500", "122719.517500", "122720.517500", "122721.517500", "122722.517500", "122723.517500", "122724.517500", "122725.517500", "122726.517500", "122727.517500", "122728.517500", "122729.517500", "122730.517500", "122731.517500", "122732.517500", "122733.517500", "122734.517500", "122735.517500", "122736.517500", "122737.517500", "122738.517500", "122739.517500", "122740.517500", "122741.517500", "122742.517500", "122743.517500", "122744.517500", "122745.517500", "122746.517500", "122747.517500", "122748.517500", "122749.517500", "122750.517500", "122751.517500", "122752.517500", "122753.517500", "122754.517500", "122755.517500", "122756.517500", "122757.517500", "122758.517500", "122759.517500", "122800.517500", "122801.517500", "122802.517500", "122803.517500", "122804.517500", "122805.517500", "122806.517500", "122807.517500", "122808.517500", "122809.517500", "122810.517500", "122811.517500", "122812.517500", "122813.517500", "122814.517500", "122815.517500", "122816.517500", "122817.517500", "122818.517500", "122819.517500", "122820.517500", "122821.517500", "122822.517500", "122823.517500", "122824.517500", "122825.517500", "122826.517500", "122827.517500", "122828.517500", "122829.517500", "122830.517500", "122831.517500", "122832.517500", "122833.517500", "122834.517500", "122835.517500", "122836.517500", "122837.517500", "122838.517500", "122839.517500", "122840.517500", "122841.517500", "122842.517500", "122843.517500"],
      "ContentTime": ["121950.889000", "121951.719000", "121952.727000", "121953.725000", "121954.725000", "121955.753000", "121956.706000", "121957.730000", "121958.694000", "121959.713000", "122000.689000", "122001.699000", "122002.709000", "122003.710000", "122004.747000", "122005.727000", "122006.722000", "122007.711000", "122008.721000", "122009.703000", "122010.713000", "122011.709000", "122012.723000", "122013.752000", "122014.695000", "122015.755000", "122016.743000", "122017.801000", "122018.774000", "122019.713000", "122020.692000", "122021.719000", "122022.704000", "122023.704000", "122024.707000", "122025.701000", "122026.689000", "122027.717000", "122028.706000", "122029.742000", "122030.702000", "122031.770000", "122032.716000", "122033.707000", "122034.691000", "122035.740000", "122036.736000", "122037.734000", "122038.710000", "122039.760000", "122040.737000", "122041.714000", "122042.713000", "122043.771000", "122044.703000", "122045.728000", "122046.751000", "122047.729000", "122048.721000", "122049.689000", "122050.707000", "122051.711000", "122052.767000", "122053.716000", "122054.683000", "122055.716000", "122056.765000", "122057.719000", "122058.707000", "122059.728000", "122100.730000", "122101.709000", "122102.719000", "122103.751000", "122104.712000", "122105.700000", "122106.739000", "122107.706000", "122108.685000", "122109.690000", "122110.721000", "122111.737000", "122112.752000", "122113.738000", "122114.762000", "122115.698000", "122116.731000", "122117.736000", "122118.768000", "122119.701000", "122120.695000", "122121.701000", "122122.725000", "122123.710000", "122124.694000", "122125.715000", "122126.708000", "122127.726000", "122128.718000", "122129.700000", "122130.702000", "122131.735000", "122132.702000", "122133.743000", "122134.734000", "122135.746000", "122136.731000", "122137.734000", "122138.726000", "122139.740000", "122140.744000", "122141.750000", "122142.731000", "122143.737000", "122144.733000", "122145.728000", "122146.707000", "122147.733000", "122148.684000", "122149.719000", "122150.767000", "122151.750000", "122152.797000", "122153.691000", "122154.752000", "122155.713000", "122156.688000", "122157.718000", "122158.733000", "122159.753000", "122200.719000", "122201.786000", "122202.711000", "122203.719000", "122204.717000", "122205.793000", "122206.759000", "122207.706000", "122208.705000", "122209.718000", "122210.719000", "122211.718000", "122212.700000", "122213.745000", "122214.745000", "122215.768000", "122216.716000", "122217.731000", "122218.749000", "122219.714000", "122220.771000", "122221.736000", "122222.777000", "122223.720000", "122224.724000", "122225.739000", "122226.703000", "122227.723000", "122228.709000", "122229.717000", "122230.725000", "122231.738000", "122232.706000", "122233.718000", "122234.705000", "122235.730000", "122236.712000", "122237.737000", "122238.758000", "122239.721000", "122240.708000", "122241.708000", "122242.731000", "122243.737000", "122244.702000", "122245.732000", "122246.708000", "122247.729000", "122248.725000", "122249.712000", "122250.720000", "122251.707000", "122252.727000", "122253.698000", "122254.732000", "122255.697000", "122256.732000", "122257.690000", "122258.707000", "122259.710000", "122300.723000", "122301.737000", "122302.709000", "122303.729000", "122304.712000", "122305.716000", "122306.711000", "122307.718000", "122308.705000", "122309.721000", "122310.720000", "122311.734000", "122312.729000", "122313.706000", "122314.717000", "122315.734000", "122316.709000", "122317.725000", "122318.693000", "122319.698000", "122320.730000", "122321.682000", "122322.721000", "122323.779000", "122324.729000", "122325.739000", "122326.728000", "122327.713000", "122328.709000", "122329.722000", "122330.710000", "122331.754000", "122332.723000", "122333.724000", "122334.742000", "122335.733000", "122336.750000", "122337.718000", "122338.700000", "122339.718000", "122340.720000", "122341.709000", "122342.717000", "122343.719000", "122344.742000", "122345.709000", "122346.732000", "122347.724000", "122348.720000", "122349.694000", "122350.711000", "122351.714000", "122352.732000", "122353.771000", "122354.752000", "122355.708000", "122356.733000", "122357.714000", "122358.717000", "122359.757000", "122400.701000", "122401.707000", "122402.732000", "122403.732000", "122404.720000", "122405.717000", "122406.725000", "122407.727000", "122408.712000", "122409.703000", "122410.790000", "122411.743000", "122412.737000", "122413.733000", "122414.720000", "122415.726000", "122416.728000", "122417.745000", "122418.751000", "122419.710000", "122420.711000", "122421.730000", "122422.692000", "122423.708000", "122424.718000", "122425.729000", "122426.723000", "122427.723000", "122428.739000", "122429.722000", "122430.736000", "122431.730000", "122432.775000", "122433.719000", "122434.723000", "122435.713000", "122436.738000", "122437.785000", "122438.717000", "122439.713000", "122440.720000", "122441.751000", "122442.722000", "122443.738000", "122444.722000", "122445.706000", "122446.712000", "122447.726000", "122448.693000", "122449.719000", "122450.714000", "122451.728000", "122452.706000", "122453.721000", "122454.716000", "122455.722000", "122456.722000", "122457.701000", "122458.697000", "122459.722000", "122500.708000", "122501.742000", "122502.731000", "122503.717000", "122504.738000", "122505.765000", "122506.744000", "122507.732000", "122508.704000", "122509.736000", "122510.722000", "122511.719000", "122512.723000", "122513.730000", "122514.681000", "122515.744000", "122516.721000", "122517.717000", "122518.718000", "122519.718000", "122520.703000", "122521.712000", "122522.711000", "122523.717000", "122524.722000", "122525.721000", "122526.784000", "122527.720000", "122528.716000", "122529.730000", "122530.731000", "122531.715000", "122532.729000", "122533.721000", "122534.735000", "122535.694000", "122536.710000", "122537.731000", "122538.726000", "122539.728000", "122540.731000", "122541.716000", "122542.724000", "122543.716000", "122544.716000", "122545.711000", "122546.715000", "122547.718000", "122548.700000", "122549.710000", "122550.721000", "122551.732000", "122552.714000", "122553.717000", "122554.705000", "122555.703000", "122556.688000", "122557.731000", "122558.718000", "122559.747000", "122600.711000", "122601.709000", "122602.708000", "122603.714000", "122604.699000", "122605.704000", "122606.724000", "122607.708000", "122608.705000", "122609.725000", "122610.724000", "122611.717000", "122612.733000", "122613.722000", "122614.705000", "122615.727000", "122616.726000", "122617.760000", "122618.733000", "122619.703000", "122620.747000", "122621.745000", "122622.721000", "122623.728000", "122624.703000", "122625.707000", "122626.706000", "122627.727000", "122628.732000", "122629.744000", "122630.744000", "122631.726000", "122632.706000", "122633.699000", "122634.735000", "122635.726000", "122636.719000", "122637.720000", "122638.784000", "122639.701000", "122640.694000", "122641.720000", "122642.717000", "122643.712000", "122644.720000", "122645.767000", "122646.729000", "122647.722000", "122648.722000", "122649.746000", "122650.707000", "122651.700000", "122652.728000", "122653.727000", "122654.723000", "122655.744000", "122656.725000", "122657.719000", "122658.696000", "122659.720000", "122700.697000", "122701.717000", "122702.714000", "122703.707000", "122704.725000", "122705.725000", "122706.723000", "122707.740000", "122708.721000", "122709.699000", "122710.719000", "122711.693000", "122712.718000", "122713.708000", "122714.713000", "122715.757000", "122716.737000", "122717.740000", "122718.721000", "122719.722000", "122720.717000", "122721.712000", "122722.729000", "122723.725000", "122724.706000", "122725.787000", "122726.717000", "122727.722000", "122728.713000", "122729.690000", "122730.709000", "122731.713000", "122732.774000", "122733.728000", "122734.768000", "122735.718000", "122736.709000", "122737.736000", "122738.715000", "122739.807000", "122740.720000", "122741.730000", "122742.701000", "122743.701000", "122744.719000", "122745.717000", "122746.754000", "122747.706000", "122748.754000", "122749.722000", "122750.702000", "122751.777000", "122752.714000", "122753.718000", "122754.719000", "122755.769000", "122756.694000", "122757.697000", "122758.724000", "122759.730000", "122800.710000", "122801.724000", "122802.762000", "122803.704000", "122804.713000", "122805.720000", "122806.744000", "122807.758000", "122808.803000", "122809.761000", "122810.750000", "122811.788000", "122812.757000", "122813.783000", "122814.740000", "122815.760000", "122816.776000", "122817.834000", "122818.764000", "122819.765000", "122820.764000", "122821.753000", "122822.781000", "122823.757000", "122824.775000", "122825.759000", "122826.736000", "122827.746000", "122828.751000", "122829.760000", "122830.764000", "122831.757000", "122832.750000", "122833.761000", "122834.759000", "122835.763000", "122836.778000", "122837.770000", "122838.781000", "122839.863000", "122840.753000", "122841.776000", "122842.747000", "122843.756000", "122844.733000"],
